0.000	-16250.347
0.002	-12960.347
0.004	-8948.347
0.006	-5119.347
0.008	-3743.347
0.010	-4160.347
0.012	-5568.347
0.014	-6376.347
0.016	-7909.347
0.018	-8930.347
0.020	-11392.347
0.022	-14070.347
0.024	-15337.347
0.026	-16095.347
0.028	-17105.347
0.030	-15859.347
0.032	-15777.347
0.034	-16659.347
0.036	-16630.347
0.038	-15289.347
0.040	-12918.347
0.042	-11258.347
0.044	-8023.347
0.046	-6977.347
0.048	-8946.347
0.050	-9593.347
0.052	-7523.347
0.054	-5241.347
0.056	-6726.347
0.058	-9642.347
0.060	-12045.347
0.062	-14453.347
0.064	-16083.347
0.066	-16965.347
0.068	-17367.347
0.070	-16903.347
0.072	-15207.347
0.074	-16430.347
0.076	-17391.347
0.078	-16078.347
0.080	-15004.347
0.082	-11222.347
0.084	-9958.347
0.086	-8177.347
0.088	-6676.347
0.090	-6065.347
0.092	-5757.347
0.094	-6797.347
0.096	-8723.347
0.098	-10005.347
0.100	-11648.347
0.102	-13593.347
0.104	-13743.347
0.106	-15243.347
0.108	-18571.347
0.110	-19407.347
0.112	-17076.347
0.114	-15089.347
0.116	-14922.347
0.118	-15595.347
0.120	-15760.347
0.122	-14652.347
0.124	-13676.347
0.126	-10192.347
0.128	-7054.347
0.130	-4630.347
0.132	-4522.347
0.134	-6737.347
0.136	-8280.347
0.138	-8758.347
0.140	-11393.347
0.142	-15153.347
0.144	-15143.347
0.146	-14045.347
0.148	-15337.347
0.150	-16827.347
0.152	-16401.347
0.154	-14819.347
0.156	-15504.347
0.158	-15891.347
0.160	-12325.347
0.162	-6602.347
0.164	-5619.347
0.166	-5757.347
0.168	-4421.347
0.170	-4539.347
0.172	-6425.347
0.174	-8002.347
0.176	-7873.347
0.178	-8231.347
0.180	-9461.347
0.182	-10340.347
0.184	-9857.347
0.186	-10020.347
0.188	-13488.347
0.190	-15437.347
0.192	-15907.347
0.194	-14817.347
0.196	-12903.347
0.198	-14270.347
0.200	-12628.347
0.202	-7760.347
0.204	-6443.347
0.206	-5714.347
0.208	-3707.347
0.210	-2639.347
0.212	-4405.347
0.214	-5214.347
0.216	-5335.347
0.218	-6534.347
0.220	-8945.347
0.222	-11430.347
0.224	-13476.347
0.226	-12373.347
0.228	-13093.347
0.230	-15873.347
0.232	-17878.347
0.234	-16740.347
0.236	-15363.347
0.238	-14687.347
0.240	-10345.347
0.242	-6378.347
0.244	-5775.347
0.246	-4872.347
0.248	-4570.347
0.250	-3787.347
0.252	-3143.347
0.254	-5373.347
0.256	-8158.347
0.258	-9837.347
0.260	-12695.347
0.262	-12897.347
0.264	-13528.347
0.266	-17610.347
0.268	-19423.347
0.270	-18673.347
0.272	-17805.347
0.274	-15739.347
0.276	-15452.347
0.278	-17564.347
0.280	-13286.347
0.282	-9730.347
0.284	-8005.347
0.286	-7443.347
0.288	-6545.347
0.290	-6947.347
0.292	-8858.347
0.294	-8488.347
0.296	-8153.347
0.298	-9981.347
0.300	-10990.347
0.302	-15018.347
0.304	-17283.347
0.306	-17698.347
0.308	-17075.347
0.310	-17075.347
0.312	-18653.347
0.314	-19438.347
0.316	-18833.347
0.318	-18876.347
0.320	-15632.347
0.322	-12500.347
0.324	-9223.347
0.326	-6537.347
0.328	-3050.347
0.330	-2172.347
0.332	-3161.347
0.334	-5087.347
0.336	-8809.347
0.338	-11488.347
0.340	-11633.347
0.342	-14153.347
0.344	-15989.347
0.346	-17257.347
0.348	-18448.347
0.350	-17622.347
0.352	-16952.347
0.354	-16742.347
0.356	-16986.347
0.358	-16860.347
0.360	-13299.347
0.362	-10367.347
0.364	-9343.347
0.366	-8232.347
0.368	-7258.347
0.370	-5684.347
0.372	-5992.347
0.374	-6350.347
0.376	-6763.347
0.378	-6551.347
0.380	-10193.347
0.382	-13382.347
0.384	-12686.347
0.386	-11342.347
0.388	-10347.347
0.390	-8722.347
0.392	-5258.347
0.394	-3120.347
0.396	-2622.347
0.398	1999.653
0.400	8526.653
0.402	12908.653
0.404	13876.653
0.406	18154.653
0.408	22881.653
0.410	27472.653
0.412	29993.653
0.414	28841.653
0.416	28693.653
0.418	29518.653
0.420	29077.653
0.422	25927.653
0.424	21688.653
0.426	17409.653
0.428	12827.653
0.430	8162.653
0.432	4491.653
0.434	1118.653
0.436	-5400.347
0.438	-8882.347
0.440	-7202.347
0.442	-6232.347
0.444	-5206.347
0.446	-2690.347
0.448	-3142.347
0.450	-3101.347
0.452	-2711.347
0.454	-5246.347
0.456	-7087.347
0.458	-8700.347
0.460	-12136.347
0.462	-14128.347
0.464	-14110.347
0.466	-15860.347
0.468	-21093.347
0.470	-24236.347
0.472	-21385.347
0.474	-20123.347
0.476	-19132.347
0.478	-15003.347
0.480	-14334.347
0.482	-14203.347
0.484	-14045.347
0.486	-11839.347
0.488	-8588.347
0.490	-8947.347
0.492	-9332.347
0.494	-8978.347
0.496	-10907.347
0.498	-13342.347
0.500	-12743.347
0.502	-13520.347
0.504	-14705.347
0.506	-14665.347
0.508	-15797.347
0.510	-17097.347
0.512	-16943.347
0.514	-17278.347
0.516	-17807.347
0.518	-13767.347
0.520	-11599.347
0.522	-10762.347
0.524	-8980.347
0.526	-8365.347
0.528	-8502.347
0.530	-8132.347
0.532	-8125.347
0.534	-9540.347
0.536	-9355.347
0.538	-11628.347
0.540	-12407.347
0.542	-13250.347
0.544	-13793.347
0.546	-15210.347
0.548	-16274.347
0.550	-15885.347
0.552	-16548.347
0.554	-16812.347
0.556	-14663.347
0.558	-12647.347
0.560	-10451.347
0.562	-8687.347
0.564	-7193.347
0.566	-6159.347
0.568	-5062.347
0.570	-6638.347
0.572	-9033.347
0.574	-7436.347
0.576	-6035.347
0.578	-7223.347
0.580	-8197.347
0.582	-11040.347
0.584	-13738.347
0.586	-15773.347
0.588	-17550.347
0.590	-19474.347
0.592	-18809.347
0.594	-17849.347
0.596	-15747.347
0.598	-11406.347
0.600	-10127.347
0.602	-8805.347
0.604	-5881.347
0.606	-3936.347
0.608	-4092.347
0.610	-5969.347
0.612	-7641.347
0.614	-8512.347
0.616	-8196.347
0.618	-8082.347
0.620	-8925.347
0.622	-10803.347
0.624	-12000.347
0.626	-14250.347
0.628	-15447.347
0.630	-18468.347
0.632	-18962.347
0.634	-16110.347
0.636	-13242.347
0.638	-8587.347
0.640	-7480.347
0.642	-7008.347
0.644	-6601.347
0.646	-6505.347
0.648	-5836.347
0.650	-4949.347
0.652	-4273.347
0.654	-5742.347
0.656	-6537.347
0.658	-7251.347
0.660	-8247.347
0.662	-9492.347
0.664	-12694.347
0.666	-14461.347
0.668	-15470.347
0.670	-15541.347
0.672	-14161.347
0.674	-15552.347
0.676	-17353.347
0.678	-11863.347
0.680	-7293.347
0.682	-4868.347
0.684	-5395.347
0.686	-5335.347
0.688	-4477.347
0.690	-3392.347
0.692	-3243.347
0.694	-5624.347
0.696	-7882.347
0.698	-8698.347
0.700	-9107.347
0.702	-11278.347
0.704	-13382.347
0.706	-14282.347
0.708	-12617.347
0.710	-10563.347
0.712	-11993.347
0.714	-13760.347
0.716	-12847.347
0.718	-11153.347
0.720	-8958.347
0.722	-5113.347
0.724	-2681.347
0.726	-1886.347
0.728	-2275.347
0.730	-1325.347
0.732	301.653
0.734	-573.347
0.736	-2055.347
0.738	-5123.347
0.740	-8470.347
0.742	-10527.347
0.744	-10997.347
0.746	-12347.347
0.748	-13602.347
0.750	-15392.347
0.752	-17392.347
0.754	-14779.347
0.756	-9098.347
0.758	-7272.347
0.760	-4891.347
0.762	-2627.347
0.764	361.653
0.766	2033.653
0.768	1677.653
0.770	2181.653
0.772	1708.653
0.774	464.653
0.776	-638.347
0.778	-3095.347
0.780	-6643.347
0.782	-8598.347
0.784	-8432.347
0.786	-9664.347
0.788	-11163.347
0.790	-11963.347
0.792	-11883.347
0.794	-8745.347
0.796	-5040.347
0.798	-3105.347
0.800	-1820.347
0.802	1857.653
0.804	4447.653
0.806	4304.653
0.808	3578.653
0.810	4337.653
0.812	4541.653
0.814	3319.653
0.816	1918.653
0.818	-830.347
0.820	-3217.347
0.822	-5530.347
0.824	-6613.347
0.826	-5390.347
0.828	-5280.347
0.830	-5770.347
0.832	-6262.347
0.834	-6913.347
0.836	-6412.347
0.838	-4083.347
0.840	-11.347
0.842	2997.653
0.844	4172.653
0.846	4131.653
0.848	7032.653
0.850	7367.653
0.852	4278.653
0.854	2039.653
0.856	1068.653
0.858	1327.653
0.860	132.653
0.862	-2519.347
0.864	-2694.347
0.866	-2925.347
0.868	-4445.347
0.870	-5482.347
0.872	-7128.347
0.874	-7172.347
0.876	-4194.347
0.878	-1957.347
0.880	1291.653
0.882	4306.653
0.884	5531.653
0.886	6009.653
0.888	4959.653
0.890	4546.653
0.892	5654.653
0.894	3518.653
0.896	218.653
0.898	-2222.347
0.900	-4103.347
0.902	-6689.347
0.904	-8308.347
0.906	-8431.347
0.908	-10168.347
0.910	-10655.347
0.912	-10200.347
0.914	-4484.347
0.916	-3215.347
0.918	-2962.347
0.920	-1432.347
0.922	-1014.347
0.924	-791.347
0.926	-398.347
0.928	697.653
0.930	2237.653
0.932	1574.653
0.934	-1008.347
0.936	-4792.347
0.938	-9212.347
0.940	-11228.347
0.942	-9396.347
0.944	-8802.347
0.946	-9888.347
0.948	-10964.347
0.950	-13456.347
0.952	-14908.347
0.954	-12903.347
0.956	-12777.347
0.958	-13027.347
0.960	-9182.347
0.962	-3174.347
0.964	-3010.347
0.966	-4749.347
0.968	-4556.347
0.970	-2528.347
0.972	-1857.347
0.974	-4011.347
0.976	-8204.347
0.978	-9965.347
0.980	-11045.347
0.982	-11982.347
0.984	-12641.347
0.986	-15020.347
0.988	-16230.347
0.990	-16118.347
0.992	-15125.347
0.994	-12967.347
0.996	-12347.347
0.998	-12223.347
1.000	-11141.347
1.002	-8192.347
1.004	-6487.347
1.006	-6056.347
1.008	-5245.347
1.010	-4610.347
1.012	-6771.347
1.014	-9161.347
1.016	-10338.347
1.018	-10675.347
1.020	-13230.347
1.022	-15235.347
1.024	-16077.347
1.026	-16359.347
1.028	-15140.347
1.030	-17732.347
1.032	-19215.347
1.034	-15770.347
1.036	-13467.347
1.038	-11982.347
1.040	-10209.347
1.042	-8037.347
1.044	-6861.347
1.046	-7127.347
1.048	-9502.347
1.050	-8426.347
1.052	-7585.347
1.054	-7042.347
1.056	-6943.347
1.058	-8894.347
1.060	-11235.347
1.062	-14555.347
1.064	-17854.347
1.066	-19315.347
1.068	-18513.347
1.070	-19204.347
1.072	-19610.347
1.074	-16370.347
1.076	-13177.347
1.078	-10460.347
1.080	-8920.347
1.082	-6981.347
1.084	-6465.347
1.086	-6256.347
1.088	-6251.347
1.090	-6703.347
1.092	-7914.347
1.094	-8624.347
1.096	-10268.347
1.098	-11348.347
1.100	-12318.347
1.102	-13726.347
1.104	-15877.347
1.106	-18686.347
1.108	-19318.347
1.110	-20395.347
1.112	-16374.347
1.114	-15078.347
1.116	-14615.347
1.118	-12875.347
1.120	-11303.347
1.122	-9258.347
1.124	-8943.347
1.126	-7651.347
1.128	-5724.347
1.130	-4595.347
1.132	-5603.347
1.134	-7947.347
1.136	-9347.347
1.138	-11618.347
1.140	-13683.347
1.142	-14821.347
1.144	-15808.347
1.146	-18342.347
1.148	-18957.347
1.150	-19085.347
1.152	-16410.347
1.154	-14953.347
1.156	-13904.347
1.158	-11997.347
1.160	-9919.347
1.162	-7866.347
1.164	-6247.347
1.166	-6053.347
1.168	-6966.347
1.170	-7446.347
1.172	-8329.347
1.174	-8778.347
1.176	-7524.347
1.178	-8939.347
1.180	-13757.347
1.182	-16465.347
1.184	-15432.347
1.186	-16253.347
1.188	-18045.347
1.190	-19022.347
1.192	-17544.347
1.194	-15470.347
1.196	-14318.347
1.198	-13893.347
1.200	-10583.347
1.202	-7827.347
1.204	-7383.347
1.206	-5975.347
1.208	-5140.347
1.210	-5190.347
1.212	-4855.347
1.214	-7403.347
1.216	-9743.347
1.218	-10885.347
1.220	-12468.347
1.222	-13147.347
1.224	-14176.347
1.226	-15943.347
1.228	-19110.347
1.230	-19831.347
1.232	-16568.347
1.234	-15862.347
1.236	-14925.347
1.238	-12387.347
1.240	-10032.347
1.242	-9808.347
1.244	-9050.347
1.246	-7034.347
1.248	-5076.347
1.250	-2702.347
1.252	-4265.347
1.254	-7780.347
1.256	-9330.347
1.258	-10838.347
1.260	-12212.347
1.262	-13179.347
1.264	-13728.347
1.266	-14704.347
1.268	-17245.347
1.270	-17958.347
1.272	-14553.347
1.274	-13622.347
1.276	-13464.347
1.278	-11863.347
1.280	-8498.347
1.282	-6482.347
1.284	-5067.347
1.286	-4713.347
1.288	-6842.347
1.290	-7230.347
1.292	-6876.347
1.294	-7348.347
1.296	-7787.347
1.298	-8629.347
1.300	-12303.347
1.302	-16272.347
1.304	-17439.347
1.306	-18915.347
1.308	-19765.347
1.310	-19072.347
1.312	-16862.347
1.314	-14364.347
1.316	-11624.347
1.318	-9348.347
1.320	-7177.347
1.322	-5668.347
1.324	-5457.347
1.326	-5125.347
1.328	-5008.347
1.330	-4161.347
1.332	-6242.347
1.334	-10109.347
1.336	-9309.347
1.338	-8877.347
1.340	-10387.347
1.342	-13475.347
1.344	-15263.347
1.346	-17107.347
1.348	-19435.347
1.350	-17031.347
1.352	-17105.347
1.354	-15811.347
1.356	-12672.347
1.358	-10538.347
1.360	-8006.347
1.362	-5449.347
1.364	-6240.347
1.366	-7085.347
1.368	-5966.347
1.370	-4718.347
1.372	-5665.347
1.374	-8480.347
1.376	-10325.347
1.378	-10819.347
1.380	-12408.347
1.382	-14986.347
1.384	-17833.347
1.386	-18211.347
1.388	-16508.347
1.390	-15426.347
1.392	-14971.347
1.394	-14425.347
1.396	-12997.347
1.398	-11114.347
1.400	-7660.347
1.402	-4803.347
1.404	-4507.347
1.406	-4668.347
1.408	-4914.347
1.410	-5064.347
1.412	-6360.347
1.414	-7972.347
1.416	-8880.347
1.418	-10126.347
1.420	-10960.347
1.422	-12308.347
1.424	-14977.347
1.426	-16618.347
1.428	-15113.347
1.430	-13939.347
1.432	-13677.347
1.434	-12069.347
1.436	-11404.347
1.438	-7769.347
1.440	-3717.347
1.442	-3658.347
1.444	-3147.347
1.446	-3400.347
1.448	-4548.347
1.450	-1936.347
1.452	-2912.347
1.454	-5865.347
1.456	-6378.347
1.458	-7765.347
1.460	-12116.347
1.462	-13890.347
1.464	-13148.347
1.466	-14560.347
1.468	-15155.347
1.470	-11938.347
1.472	-10332.347
1.474	-11399.347
1.476	-10027.347
1.478	-7459.347
1.480	-5278.347
1.482	-3465.347
1.484	-3192.347
1.486	-3049.347
1.488	-2695.347
1.490	-3119.347
1.492	-5339.347
1.494	-5385.347
1.496	-3992.347
1.498	-6310.347
1.500	-11181.347
1.502	-15202.347
1.504	-17644.347
1.506	-20760.347
1.508	-20312.347
1.510	-14638.347
1.512	-14698.347
1.514	-14976.347
1.516	-12800.347
1.518	-10767.347
1.520	-7845.347
1.522	-5057.347
1.524	-4230.347
1.526	-3868.347
1.528	-5500.347
1.530	-7269.347
1.532	-7949.347
1.534	-8555.347
1.536	-8938.347
1.538	-10851.347
1.540	-13133.347
1.542	-14873.347
1.544	-17903.347
1.546	-21242.347
1.548	-17798.347
1.550	-15480.347
1.552	-16103.347
1.554	-15659.347
1.556	-12795.347
1.558	-9274.347
1.560	-7450.347
1.562	-5496.347
1.564	-4666.347
1.566	-6147.347
1.568	-6322.347
1.570	-4372.347
1.572	-4990.347
1.574	-5214.347
1.576	-5713.347
1.578	-8665.347
1.580	-13180.347
1.582	-15664.347
1.584	-18005.347
1.586	-17773.347
1.588	-17247.347
1.590	-18095.347
1.592	-16675.347
1.594	-15147.347
1.596	-14298.347
1.598	-13103.347
1.600	-11117.347
1.602	-6210.347
1.604	-3593.347
1.606	-2468.347
1.608	-3353.347
1.610	-4424.347
1.612	-5222.347
1.614	-6364.347
1.616	-9143.347
1.618	-10797.347
1.620	-13493.347
1.622	-15459.347
1.624	-18438.347
1.626	-17679.347
1.628	-14955.347
1.630	-15454.347
1.632	-15578.347
1.634	-14822.347
1.636	-11798.347
1.638	-8426.347
1.640	-5433.347
1.642	-2190.347
1.644	3481.653
1.646	6066.653
1.648	6799.653
1.650	8222.653
1.652	9489.653
1.654	9300.653
1.656	9148.653
1.658	9951.653
1.660	10704.653
1.662	11504.653
1.664	14514.653
1.666	17935.653
1.668	19226.653
1.670	21790.653
1.672	25627.653
1.674	26727.653
1.676	28961.653
1.678	28933.653
1.680	26956.653
1.682	25479.653
1.684	24836.653
1.686	21772.653
1.688	16997.653
1.690	11780.653
1.692	6764.653
1.694	2533.653
1.696	-2655.347
1.698	-8588.347
1.700	-11114.347
1.702	-13510.347
1.704	-16083.347
1.706	-15664.347
1.708	-13147.347
1.710	-12429.347
1.712	-14330.347
1.714	-14911.347
1.716	-11817.347
1.718	-10259.347
1.720	-9362.347
1.722	-8014.347
1.724	-7217.347
1.726	-7297.347
1.728	-7722.347
1.730	-10482.347
1.732	-12955.347
1.734	-10952.347
1.736	-9542.347
1.738	-12915.347
1.740	-16668.347
1.742	-18243.347
1.744	-19833.347
1.746	-17348.347
1.748	-17138.347
1.750	-19027.347
1.752	-18249.347
1.754	-13860.347
1.756	-13308.347
1.758	-12122.347
1.760	-9208.347
1.762	-6355.347
1.764	-3573.347
1.766	-4062.347
1.768	-6358.347
1.770	-7267.347
1.772	-7859.347
1.774	-7873.347
1.776	-7835.347
1.778	-9077.347
1.780	-12383.347
1.782	-14274.347
1.784	-15528.347
1.786	-15474.347
1.788	-16041.347
1.790	-16669.347
1.792	-16589.347
1.794	-14824.347
1.796	-12750.347
1.798	-10841.347
1.800	-9110.347
1.802	-5718.347
1.804	-2733.347
1.806	-2972.347
1.808	-4441.347
1.810	-5797.347
1.812	-7681.347
1.814	-6773.347
1.816	-7478.347
1.818	-9912.347
1.820	-12050.347
1.822	-15143.347
1.824	-17132.347
1.826	-16360.347
1.828	-14927.347
1.830	-14683.347
1.832	-14203.347
1.834	-12662.347
1.836	-11102.347
1.838	-10353.347
1.840	-8907.347
1.842	-7259.347
1.844	-3293.347
1.846	-773.347
1.848	-2775.347
1.850	-3746.347
1.852	-3830.347
1.854	-6727.347
1.856	-8742.347
1.858	-9057.347
1.860	-12058.347
1.862	-13166.347
1.864	-14178.347
1.866	-14745.347
1.868	-14255.347
1.870	-14710.347
1.872	-12325.347
1.874	-11072.347
1.876	-11281.347
1.878	-9625.347
1.880	-7618.347
1.882	-7503.347
1.884	-8193.347
1.886	-6852.347
1.888	-3530.347
1.890	-1125.347
1.892	-2448.347
1.894	-4113.347
1.896	-5705.347
1.898	-8918.347
1.900	-12398.347
1.902	-14292.347
1.904	-15323.347
1.906	-14145.347
1.908	-11172.347
1.910	-8872.347
1.912	-7768.347
1.914	-9310.347
1.916	-9607.347
1.918	-8304.347
1.920	-4666.347
1.922	-1395.347
1.924	468.653
1.926	-1302.347
1.928	-3553.347
1.930	-4850.347
1.932	-5502.347
1.934	-7832.347
1.936	-10530.347
1.938	-9893.347
1.940	-8132.347
1.942	-10719.347
1.944	-13600.347
1.946	-12729.347
1.948	-10437.347
1.950	-8043.347
1.952	-8388.347
1.954	-8607.347
1.956	-8627.347
1.958	-6457.347
1.960	-3117.347
1.962	-1869.347
1.964	-2521.347
1.966	-3509.347
1.968	-2122.347
1.970	-1758.347
1.972	-2617.347
1.974	-3143.347
1.976	-4245.347
1.978	-5469.347
1.980	-8468.347
1.982	-10944.347
1.984	-10462.347
1.986	-9169.347
1.988	-9230.347
1.990	-10314.347
1.992	-9445.347
1.994	-6971.347
1.996	-6107.347
1.998	-6074.347
2.000	-3298.347
2.002	-1499.347
2.004	-446.347
2.006	419.653
2.008	695.653
2.010	-32.347
2.012	-976.347
2.014	-240.347
2.016	-1705.347
2.018	-6084.347
2.020	-9138.347
2.022	-8295.347
2.024	-8730.347
2.026	-9371.347
2.028	-7005.347
2.030	-6800.347
2.032	-6468.347
2.034	-5788.347
2.036	-5172.347
2.038	-2519.347
2.040	1869.653
2.042	5355.653
2.044	6336.653
2.046	6408.653
2.048	5954.653
2.050	4361.653
2.052	3392.653
2.054	1751.653
2.056	166.653
2.058	-857.347
2.060	-4750.347
2.062	-6684.347
2.064	-6138.347
2.066	-6445.347
2.068	-4942.347
2.070	-5226.347
2.072	-5789.347
2.074	-5181.347
2.076	-2850.347
2.078	898.653
2.080	3262.653
2.082	5494.653
2.084	8434.653
2.086	8412.653
2.088	5987.653
2.090	5988.653
2.092	4652.653
2.094	2371.653
2.096	700.653
2.098	2036.653
2.100	-1433.347
2.102	-3952.347
2.104	-2457.347
2.106	-2078.347
2.108	-1840.347
2.110	-4027.347
2.112	-4326.347
2.114	-1678.347
2.116	2284.653
2.118	6462.653
2.120	7252.653
2.122	6961.653
2.124	8945.653
2.126	9578.653
2.128	8865.653
2.130	7009.653
2.132	4226.653
2.134	3701.653
2.136	2844.653
2.138	119.653
2.140	-2858.347
2.142	-3540.347
2.144	-2272.347
2.146	-2343.347
2.148	-3952.347
2.150	-4138.347
2.152	-2756.347
2.154	-1298.347
2.156	-792.347
2.158	11.653
2.160	2495.653
2.162	4021.653
2.164	4649.653
2.166	4589.653
2.168	4111.653
2.170	2978.653
2.172	1206.653
2.174	-1221.347
2.176	-3088.347
2.178	-4203.347
2.180	-6085.347
2.182	-7127.347
2.184	-8954.347
2.186	-10285.347
2.188	-8535.347
2.190	-6685.347
2.192	-7703.347
2.194	-9165.347
2.196	-7542.347
2.198	-2956.347
2.200	499.653
2.202	1459.653
2.204	32.653
2.206	-1150.347
2.208	-152.347
2.210	420.653
2.212	-2300.347
2.214	-3898.347
2.216	-5055.347
2.218	-8854.347
2.220	-11194.347
2.222	-9332.347
2.224	-10422.347
2.226	-13248.347
2.228	-14967.347
2.230	-13505.347
2.232	-10834.347
2.234	-10487.347
2.236	-9535.347
2.238	-6735.347
2.240	-4586.347
2.242	-3989.347
2.244	-3188.347
2.246	-3965.347
2.248	-4694.347
2.250	-6776.347
2.252	-8732.347
2.254	-7025.347
2.256	-6365.347
2.258	-9760.347
2.260	-12695.347
2.262	-10751.347
2.264	-11001.347
2.266	-12618.347
2.268	-12401.347
2.270	-11948.347
2.272	-12827.347
2.274	-11333.347
2.276	-9605.347
2.278	-7676.347
2.280	-6011.347
2.282	-4480.347
2.284	-4096.347
2.286	-3906.347
2.288	-3545.347
2.290	-4123.347
2.292	-5905.347
2.294	-8040.347
2.296	-10213.347
2.298	-14390.347
2.300	-16299.347
2.302	-13653.347
2.304	-15165.347
2.306	-16078.347
2.308	-14897.347
2.310	-14992.347
2.312	-14760.347
2.314	-12439.347
2.316	-9736.347
2.318	-7007.347
2.320	-5763.347
2.322	-5325.347
2.324	-3380.347
2.326	-1745.347
2.328	-2279.347
2.330	-4646.347
2.332	-5593.347
2.334	-7069.347
2.336	-7658.347
2.338	-12546.347
2.340	-16726.347
2.342	-16268.347
2.344	-16540.347
2.346	-16837.347
2.348	-15125.347
2.350	-13097.347
2.352	-11311.347
2.354	-10798.347
2.356	-10435.347
2.358	-9802.347
2.360	-8095.347
2.362	-4676.347
2.364	-3032.347
2.366	-4112.347
2.368	-6393.347
2.370	-7517.347
2.372	-7018.347
2.374	-7529.347
2.376	-10735.347
2.378	-13813.347
2.380	-14064.347
2.382	-13260.347
2.384	-13557.347
2.386	-16048.347
2.388	-16072.347
2.390	-14172.347
2.392	-16057.347
2.394	-14729.347
2.396	-10095.347
2.398	-6595.347
2.400	-2803.347
2.402	-567.347
2.404	-2470.347
2.406	-3698.347
2.408	-2660.347
2.410	-4127.347
2.412	-5721.347
2.414	-7087.347
2.416	-10080.347
2.418	-12703.347
2.420	-11998.347
2.422	-13288.347
2.424	-14938.347
2.426	-14659.347
2.428	-15155.347
2.430	-16393.347
2.432	-13163.347
2.434	-10110.347
2.436	-9768.347
2.438	-7295.347
2.440	-3896.347
2.442	-2700.347
2.444	-3877.347
2.446	-4945.347
2.448	-5248.347
2.450	-6168.347
2.452	-8342.347
2.454	-10885.347
2.456	-11383.347
2.458	-8952.347
2.460	-8920.347
2.462	-11040.347
2.464	-13201.347
2.466	-15182.347
2.468	-15277.347
2.470	-14148.347
2.472	-12515.347
2.474	-10628.347
2.476	-8768.347
2.478	-5952.347
2.480	-3683.347
2.482	-3220.347
2.484	-3507.347
2.486	-2227.347
2.488	-3965.347
2.490	-6648.347
2.492	-5417.347
2.494	-6538.347
2.496	-10602.347
2.498	-13178.347
2.500	-11808.347
2.502	-12885.347
2.504	-14599.347
2.506	-14053.347
2.508	-12347.347
2.510	-11092.347
2.512	-11055.347
2.514	-11097.347
2.516	-10555.347
2.518	-8985.347
2.520	-6143.347
2.522	-4922.347
2.524	-3931.347
2.526	-2263.347
2.528	-1881.347
2.530	-2866.347
2.532	-4955.347
2.534	-6821.347
2.536	-9863.347
2.538	-12480.347
2.540	-12420.347
2.542	-14445.347
2.544	-16304.347
2.546	-15592.347
2.548	-15909.347
2.550	-13863.347
2.552	-11068.347
2.554	-9325.347
2.556	-7648.347
2.558	-6002.347
2.560	-4780.347
2.562	-5160.347
2.564	-4026.347
2.566	-1598.347
2.568	-1475.347
2.570	-5568.347
2.572	-6668.347
2.574	-7627.347
2.576	-10400.347
2.578	-9412.347
2.580	-8861.347
2.582	-9971.347
2.584	-13133.347
2.586	-14892.347
2.588	-14839.347
2.590	-14207.347
2.592	-11045.347
2.594	-8843.347
2.596	-8800.347
2.598	-8387.347
2.600	-5918.347
2.602	-5219.347
2.604	-4695.347
2.606	-3885.347
2.608	-2372.347
2.610	-2978.347
2.612	-3861.347
2.614	-6303.347
2.616	-9277.347
2.618	-8777.347
2.620	-11145.347
2.622	-13393.347
2.624	-13894.347
2.626	-14387.347
2.628	-15542.347
2.630	-13420.347
2.632	-11925.347
2.634	-11341.347
2.636	-8975.347
2.638	-8253.347
2.640	-7042.347
2.642	-2660.347
2.644	822.653
2.646	-942.347
2.648	-2515.347
2.650	-4173.347
2.652	-5157.347
2.654	-7387.347
2.656	-8963.347
2.658	-9590.347
2.660	-10373.347
2.662	-12309.347
2.664	-15060.347
2.666	-16617.347
2.668	-15181.347
2.670	-10239.347
2.672	-8893.347
2.674	-9275.347
2.676	-5933.347
2.678	-3067.347
2.680	-1467.347
2.682	-652.347
2.684	-911.347
2.686	-1350.347
2.688	-1700.347
2.690	-2410.347
2.692	-3728.347
2.694	-6753.347
2.696	-9641.347
2.698	-9801.347
2.700	-9481.347
2.702	-10444.347
2.704	-13237.347
2.706	-11893.347
2.708	-9178.347
2.710	-9617.347
2.712	-9733.347
2.714	-7814.347
2.716	-6592.347
2.718	-3358.347
2.720	-1520.347
2.722	-167.347
2.724	510.653
2.726	-1245.347
2.728	-1701.347
2.730	-1098.347
2.732	-538.347
2.734	-2885.347
2.736	-5497.347
2.738	-6836.347
2.740	-8018.347
2.742	-11645.347
2.744	-12900.347
2.746	-10919.347
2.748	-13168.347
2.750	-14720.347
2.752	-12965.347
2.754	-9793.347
2.756	-4725.347
2.758	-2499.347
2.760	-2660.347
2.762	-1770.347
2.764	-128.347
2.766	-1122.347
2.768	-2300.347
2.770	-4661.347
2.772	-7037.347
2.774	-7557.347
2.776	-8022.347
2.778	-10450.347
2.780	-12927.347
2.782	-14272.347
2.784	-14417.347
2.786	-15383.347
2.788	-14606.347
2.790	-12326.347
2.792	-11302.347
2.794	-10373.347
2.796	-7024.347
2.798	-5649.347
2.800	-5927.347
2.802	-6855.347
2.804	-7086.347
2.806	-3705.347
2.808	-3307.347
2.810	-6851.347
2.812	-8558.347
2.814	-8555.347
2.816	-6110.347
2.818	-7461.347
2.820	-10014.347
2.822	-11916.347
2.824	-12849.347
2.826	-14698.347
2.828	-15415.347
2.830	-14302.347
2.832	-13128.347
2.834	-11088.347
2.836	-8973.347
2.838	-6185.347
2.840	-4154.347
2.842	-2910.347
2.844	-1402.347
2.846	-1411.347
2.848	-3209.347
2.850	-3825.347
2.852	-6509.347
2.854	-9708.347
2.856	-10627.347
2.858	-12435.347
2.860	-13685.347
2.862	-14842.347
2.864	-15679.347
2.866	-16068.347
2.868	-12949.347
2.870	-9671.347
2.872	-9832.347
2.874	-9367.347
2.876	-7835.347
2.878	-5988.347
2.880	-4634.347
2.882	-689.347
2.884	-857.347
2.886	-2901.347
2.888	-3169.347
2.890	-1638.347
2.892	-1338.347
2.894	-817.347
2.896	1264.653
2.898	-330.347
2.900	-555.347
2.902	243.653
2.904	2062.653
2.906	1462.653
2.908	2241.653
2.910	6747.653
2.912	12639.653
2.914	18788.653
2.916	22934.653
2.918	25804.653
2.920	30716.653
2.922	36167.653
2.924	38562.653
2.926	39412.653
2.928	38902.653
2.930	35684.653
2.932	29651.653
2.934	23432.653
2.936	21350.653
2.938	16366.653
2.940	10189.653
2.942	3167.653
2.944	-3562.347
2.946	-8152.347
2.948	-9267.347
2.950	-7320.347
2.952	-4836.347
2.954	-3500.347
2.956	-3635.347
2.958	-2997.347
2.960	-2478.347
2.962	-3317.347
2.964	-3210.347
2.966	-3190.347
2.968	-4528.347
2.970	-7015.347
2.972	-9522.347
2.974	-10330.347
2.976	-11092.347
2.978	-14382.347
2.980	-14847.347
2.982	-15025.347
2.984	-16010.347
2.986	-16170.347
2.988	-16395.347
2.990	-17008.347
2.992	-16575.347
2.994	-12768.347
2.996	-8877.347
2.998	-7639.347
3.000	-6885.347
3.002	-5123.347
3.004	-5175.347
3.006	-5915.347
3.008	-5796.347
3.010	-6757.347
3.012	-6901.347
3.014	-6427.347
3.016	-8772.347
3.018	-11538.347
3.020	-11862.347
3.022	-12794.347
3.024	-13840.347
3.026	-14253.347
3.028	-12813.347
3.030	-12550.347
3.032	-12039.347
3.034	-9273.347
3.036	-5929.347
3.038	-5713.347
3.040	-5227.347
3.042	-3840.347
3.044	-3252.347
3.046	-2516.347
3.048	-4188.347
3.050	-8313.347
3.052	-10065.347
3.054	-7770.347
3.056	-7698.347
3.058	-11078.347
3.060	-12144.347
3.062	-11153.347
3.064	-11730.347
3.066	-12550.347
3.068	-13533.347
3.070	-12528.347
3.072	-9293.347
3.074	-6994.347
3.076	-4783.347
3.078	-3918.347
3.080	-3211.347
3.082	-2459.347
3.084	-2000.347
3.086	-525.347
3.088	-345.347
3.090	-4168.347
3.092	-7846.347
3.094	-7507.347
3.096	-7962.347
3.098	-9822.347
3.100	-11535.347
3.102	-12620.347
3.104	-13332.347
3.106	-14698.347
3.108	-17645.347
3.110	-15718.347
3.112	-10415.347
3.114	-7140.347
3.116	-5152.347
3.118	-372.347
3.120	-2443.347
3.122	-787.347
3.124	1496.653
3.126	-807.347
3.128	-4063.347
3.130	-6072.347
3.132	-6105.347
3.134	-5602.347
3.136	-7259.347
3.138	-9808.347
3.140	-9435.347
3.142	-8318.347
3.144	-9837.347
3.146	-11473.347
3.148	-12593.347
3.150	-10010.347
3.152	-7068.347
3.154	-5335.347
3.156	-3647.347
3.158	-1813.347
3.160	-480.347
3.162	576.653
3.164	412.653
3.166	-560.347
3.168	-1943.347
3.170	-4457.347
3.172	-4591.347
3.174	-4083.347
3.176	-5298.347
3.178	-7688.347
3.180	-9313.347
3.182	-11240.347
3.184	-12543.347
3.186	-12934.347
3.188	-11838.347
3.190	-10013.347
3.192	-7777.347
3.194	-5390.347
3.196	-3540.347
3.198	-1550.347
3.200	-394.347
3.202	52.653
3.204	-1339.347
3.206	-261.347
3.208	-1336.347
3.210	-5668.347
3.212	-2271.347
3.214	-2927.347
3.216	-4640.347
3.218	-5439.347
3.220	-6558.347
3.222	-8370.347
3.224	-8708.347
3.226	-9790.347
3.228	-9853.347
3.230	-7919.347
3.232	-6387.347
3.234	-4597.347
3.236	-2398.347
3.238	-1147.347
3.240	518.653
3.242	2452.653
3.244	3208.653
3.246	4309.653
3.248	1284.653
3.250	-3364.347
3.252	-1555.347
3.254	-1570.347
3.256	-2688.347
3.258	-3429.347
3.260	-4084.347
3.262	-6186.347
3.264	-8460.347
3.266	-8493.347
3.268	-7885.347
3.270	-6723.347
3.272	-4503.347
3.274	-3542.347
3.276	-1240.347
3.278	2731.653
3.280	3194.653
3.282	1539.653
3.284	1755.653
3.286	4552.653
3.288	4964.653
3.290	2632.653
3.292	694.653
3.294	-2243.347
3.296	-2297.347
3.298	-538.347
3.300	-2446.347
3.302	-4288.347
3.304	-3450.347
3.306	-3178.347
3.308	-3274.347
3.310	-3991.347
3.312	-3153.347
3.314	-672.347
3.316	3364.653
3.318	7240.653
3.320	8422.653
3.322	9191.653
3.324	8551.653
3.326	8110.653
3.328	6567.653
3.330	6300.653
3.332	6361.653
3.334	4441.653
3.336	1146.653
3.338	-676.347
3.340	-2849.347
3.342	-4917.347
3.344	-3070.347
3.346	-1050.347
3.348	-265.347
3.350	-301.347
3.352	1022.653
3.354	2056.653
3.356	3261.653
3.358	5554.653
3.360	6871.653
3.362	9444.653
3.364	10810.653
3.366	10796.653
3.368	7245.653
3.370	4139.653
3.372	4054.653
3.374	5461.653
3.376	3798.653
3.378	1274.653
3.380	1781.653
3.382	-841.347
3.384	-3612.347
3.386	-1020.347
3.388	-1117.347
3.390	-1434.347
3.392	-872.347
3.394	434.653
3.396	4011.653
3.398	8846.653
3.400	10762.653
3.402	10157.653
3.404	8527.653
3.406	6919.653
3.408	2644.653
3.410	1684.653
3.412	4258.653
3.414	3607.653
3.416	-11.347
3.418	-2838.347
3.420	-4130.347
3.422	-6780.347
3.424	-6671.347
3.426	-4980.347
3.428	-3079.347
3.430	-2762.347
3.432	-2783.347
3.434	-726.347
3.436	1557.653
3.438	1505.653
3.440	-77.347
3.442	-873.347
3.444	-1017.347
3.446	-2040.347
3.448	-2100.347
3.450	1316.653
3.452	634.653
3.454	-1322.347
3.456	-2829.347
3.458	-5670.347
3.460	-7346.347
3.462	-7316.347
3.464	-9027.347
3.466	-10142.347
3.468	-9783.347
3.470	-9382.347
3.472	-8430.347
3.474	-7269.347
3.476	-4700.347
3.478	-1994.347
3.480	-608.347
3.482	-745.347
3.484	253.653
3.486	-97.347
3.488	-3173.347
3.490	-3478.347
3.492	-4611.347
3.494	-7762.347
3.496	-9901.347
3.498	-11381.347
3.500	-12140.347
3.502	-11446.347
3.504	-11455.347
3.506	-8807.347
3.508	-9435.347
3.510	-9932.347
3.512	-9088.347
3.514	-7211.347
3.516	-5440.347
3.518	-5318.347
3.520	-4925.347
3.522	-3485.347
3.524	-1056.347
3.526	-3210.347
3.528	-5349.347
3.530	-4483.347
3.532	-5496.347
3.534	-6156.347
3.536	-8567.347
3.538	-11480.347
3.540	-12140.347
3.542	-13314.347
3.544	-14227.347
3.546	-12425.347
3.548	-10232.347
3.550	-10595.347
3.552	-10584.347
3.554	-8682.347
3.556	-7159.347
3.558	-5493.347
3.560	-3162.347
3.562	-2078.347
3.564	-4031.347
3.566	-5500.347
3.568	-3837.347
3.570	-2878.347
3.572	-5842.347
3.574	-8223.347
3.576	-8756.347
3.578	-9623.347
3.580	-12544.347
3.582	-16438.347
3.584	-18471.347
3.586	-16950.347
3.588	-14862.347
3.590	-12790.347
3.592	-10249.347
3.594	-9148.347
3.596	-6488.347
3.598	-2780.347
3.600	-2838.347
3.602	-2449.347
3.604	-1944.347
3.606	-3753.347
3.608	-3644.347
3.610	-3621.347
3.612	-5691.347
3.614	-7312.347
3.616	-7682.347
3.618	-9437.347
3.620	-11695.347
3.622	-13468.347
3.624	-13716.347
3.626	-13761.347
3.628	-13053.347
3.630	-10893.347
3.632	-9604.347
3.634	-9564.347
3.636	-8452.347
3.638	-4250.347
3.640	-2251.347
3.642	-4727.347
3.644	-5153.347
3.646	-5724.347
3.648	-3166.347
3.650	-2763.347
3.652	-3668.347
3.654	-5478.347
3.656	-9110.347
3.658	-12066.347
3.660	-13059.347
3.662	-14440.347
3.664	-15275.347
3.666	-14528.347
3.668	-12883.347
3.670	-12331.347
3.672	-10545.347
3.674	-7593.347
3.676	-4883.347
3.678	-2526.347
3.680	-1743.347
3.682	-2245.347
3.684	-4491.347
3.686	-6388.347
3.688	-4671.347
3.690	-4744.347
3.692	-5608.347
3.694	-5636.347
3.696	-9503.347
3.698	-13241.347
3.700	-14666.347
3.702	-14122.347
3.704	-11347.347
3.706	-11973.347
3.708	-11655.347
3.710	-9650.347
3.712	-7608.347
3.714	-6753.347
3.716	-5387.347
3.718	-2600.347
3.720	-910.347
3.722	-1219.347
3.724	-3506.347
3.726	-4130.347
3.728	-2846.347
3.730	-3160.347
3.732	-4786.347
3.734	-6881.347
3.736	-9101.347
3.738	-11742.347
3.740	-13213.347
3.742	-14018.347
3.744	-12655.347
3.746	-10748.347
3.748	-10906.347
3.750	-11747.347
3.752	-10437.347
3.754	-8312.347
3.756	-6552.347
3.758	-5453.347
3.760	-1848.347
3.762	-555.347
3.764	-2866.347
3.766	-4066.347
3.768	-1785.347
3.770	-3253.347
3.772	-6103.347
3.774	-9318.347
3.776	-10355.347
3.778	-9323.347
3.780	-8245.347
3.782	-10267.347
3.784	-11365.347
3.786	-10068.347
3.788	-8471.347
3.790	-10277.347
3.792	-10900.347
3.794	-8872.347
3.796	-5163.347
3.798	-1881.347
3.800	-107.347
3.802	589.653
3.804	-1135.347
3.806	-4579.347
3.808	-5178.347
3.810	-6000.347
3.812	-6967.347
3.814	-6228.347
3.816	-7583.347
3.818	-8557.347
3.820	-10258.347
3.822	-12322.347
3.824	-13940.347
3.826	-13960.347
3.828	-11028.347
3.830	-7698.347
3.832	-6925.347
3.834	-6215.347
3.836	-2163.347
3.838	-362.347
3.840	-976.347
3.842	-2670.347
3.844	-4136.347
3.846	-3120.347
3.848	-2574.347
3.850	-3198.347
3.852	-7089.347
3.854	-9962.347
3.856	-11067.347
3.858	-10817.347
3.860	-12048.347
3.862	-12145.347
3.864	-12399.347
3.866	-12532.347
3.868	-10154.347
3.870	-8876.347
3.872	-7661.347
3.874	-5197.347
3.876	-4826.347
3.878	-2939.347
3.880	-1033.347
3.882	-2590.347
3.884	-3182.347
3.886	-1301.347
3.888	-1616.347
3.890	-3407.347
3.892	-4060.347
3.894	-5865.347
3.896	-9394.347
3.898	-10516.347
3.900	-10833.347
3.902	-10251.347
3.904	-10147.347
3.906	-11120.347
3.908	-10922.347
3.910	-9830.347
3.912	-8801.347
3.914	-8574.347
3.916	-6405.347
3.918	-3686.347
3.920	-1293.347
3.922	-848.347
3.924	-430.347
3.926	174.653
3.928	-2282.347
3.930	-1520.347
3.932	-2001.347
3.934	-4822.347
3.936	-8081.347
3.938	-8157.347
3.940	-8446.347
3.942	-10625.347
3.944	-10375.347
3.946	-9372.347
3.948	-7798.347
3.950	-3936.347
3.952	-1682.347
3.954	-1647.347
3.956	-1145.347
3.958	-277.347
3.960	-320.347
3.962	-500.347
3.964	969.653
3.966	4455.653
3.968	3742.653
3.970	495.653
3.972	-3155.347
3.974	-5262.347
3.976	-5372.347
3.978	-5715.347
3.980	-8643.347
3.982	-12669.347
3.984	-13993.347
3.986	-11984.347
3.988	-9862.347
3.990	-8454.347
3.992	-6959.347
3.994	-4942.347
3.996	-2065.347
3.998	-1956.347
4.000	-3932.347
4.002	-3345.347
4.004	-725.347
4.006	56.653
4.008	-2576.347
4.010	-4452.347
4.012	-5823.347
4.014	-8930.347
4.016	-11506.347
4.018	-10948.347
4.020	-10191.347
4.022	-11115.347
4.024	-12460.347
4.026	-11183.347
4.028	-9683.347
4.030	-9868.347
4.032	-7840.347
4.034	-6811.347
4.036	-7690.347
4.038	-7351.347
4.040	-4091.347
4.042	-2966.347
4.044	-1506.347
4.046	-1953.347
4.048	-2323.347
4.050	-2713.347
4.052	-5127.347
4.054	-7793.347
4.056	-10216.347
4.058	-13636.347
4.060	-15853.347
4.062	-12015.347
4.064	-10090.347
4.066	-10157.347
4.068	-10544.347
4.070	-9750.347
4.072	-8430.347
4.074	-7773.347
4.076	-5607.347
4.078	-3181.347
4.080	-4717.347
4.082	-5456.347
4.084	-2583.347
4.086	-1865.347
4.088	-3009.347
4.090	-3706.347
4.092	-5739.347
4.094	-8426.347
4.096	-9932.347
4.098	-10141.347
4.100	-12300.347
4.102	-14898.347
4.104	-14707.347
4.106	-14168.347
4.108	-12457.347
4.110	-9006.347
4.112	-5385.347
4.114	-5513.347
4.116	-5832.347
4.118	-5474.347
4.120	-4377.347
4.122	-1374.347
4.124	3425.653
4.126	4801.653
4.128	3642.653
4.130	3699.653
4.132	4534.653
4.134	4649.653
4.136	3977.653
4.138	2926.653
4.140	4067.653
4.142	6972.653
4.144	8214.653
4.146	11821.653
4.148	15920.653
4.150	20110.653
4.152	24750.653
4.154	28539.653
4.156	31147.653
4.158	34992.653
4.160	36997.653
4.162	36922.653
4.164	37993.653
4.166	35108.653
4.168	32529.653
4.170	29247.653
4.172	23335.653
4.174	16614.653
4.176	11041.653
4.178	4279.653
4.180	-2089.347
4.182	-4080.347
4.184	-5927.347
4.186	-7516.347
4.188	-7642.347
4.190	-6529.347
4.192	-5601.347
4.194	-5482.347
4.196	-5090.347
4.198	-4620.347
4.200	-5022.347
4.202	-3127.347
4.204	-3508.347
4.206	-6469.347
4.208	-4581.347
4.210	-2679.347
4.212	-4558.347
4.214	-7542.347
4.216	-10890.347
4.218	-13848.347
4.220	-16066.347
4.222	-14488.347
4.224	-14415.347
4.226	-14667.347
4.228	-13124.347
4.230	-11238.347
4.232	-9997.347
4.234	-7022.347
4.236	-3979.347
4.238	-4084.347
4.240	-6228.347
4.242	-5905.347
4.244	-3289.347
4.246	-3224.347
4.248	-5437.347
4.250	-5330.347
4.252	-5024.347
4.254	-6837.347
4.256	-8080.347
4.258	-9107.347
4.260	-10866.347
4.262	-11732.347
4.264	-10923.347
4.266	-9710.347
4.268	-8896.347
4.270	-8633.347
4.272	-7723.347
4.274	-6330.347
4.276	-4503.347
4.278	-3452.347
4.280	-3383.347
4.282	-1642.347
4.284	-2700.347
4.286	-3532.347
4.288	-3511.347
4.290	-4893.347
4.292	-5652.347
4.294	-6540.347
4.296	-8190.347
4.298	-10930.347
4.300	-12821.347
4.302	-14573.347
4.304	-13472.347
4.306	-11007.347
4.308	-9761.347
4.310	-7680.347
4.312	-5646.347
4.314	-3479.347
4.316	22.653
4.318	-630.347
4.320	-1307.347
4.322	232.653
4.324	171.653
4.326	-1205.347
4.328	-2628.347
4.330	-4464.347
4.332	-6132.347
4.334	-6224.347
4.336	-5110.347
4.338	-5670.347
4.340	-8957.347
4.342	-11351.347
4.344	-10899.347
4.346	-10712.347
4.348	-8905.347
4.350	-7377.347
4.352	-6553.347
4.354	-3970.347
4.356	-1616.347
4.358	-1090.347
4.360	934.653
4.362	1797.653
4.364	546.653
4.366	-562.347
4.368	-1923.347
4.370	-3571.347
4.372	-5556.347
4.374	-5945.347
4.376	-6783.347
4.378	-8009.347
4.380	-10817.347
4.382	-12320.347
4.384	-11273.347
4.386	-10201.347
4.388	-9524.347
4.390	-8059.347
4.392	-3430.347
4.394	227.653
4.396	731.653
4.398	-68.347
4.400	-1447.347
4.402	-261.347
4.404	1239.653
4.406	983.653
4.408	-1983.347
4.410	-3751.347
4.412	-4531.347
4.414	-5763.347
4.416	-4802.347
4.418	-4831.347
4.420	-8063.347
4.422	-9782.347
4.424	-11261.347
4.426	-9158.347
4.428	-5907.347
4.430	-5027.347
4.432	-3583.347
4.434	-1105.347
4.436	-849.347
4.438	-2878.347
4.440	-1978.347
4.442	2891.653
4.444	4809.653
4.446	4697.653
4.448	3096.653
4.450	379.653
4.452	-2180.347
4.454	-4262.347
4.456	-5992.347
4.458	-6417.347
4.460	-7509.347
4.462	-7927.347
4.464	-9087.347
4.466	-8112.347
4.468	-5580.347
4.470	-4309.347
4.472	-1727.347
4.474	551.653
4.476	1136.653
4.478	974.653
4.480	3932.653
4.482	3289.653
4.484	3084.653
4.486	3629.653
4.488	3277.653
4.490	2180.653
4.492	-813.347
4.494	-3528.347
4.496	-4875.347
4.498	-6181.347
4.500	-5398.347
4.502	-5490.347
4.504	-6077.347
4.506	-6396.347
4.508	-5993.347
4.510	-2405.347
4.512	929.653
4.514	3079.653
4.516	3641.653
4.518	3596.653
4.520	6359.653
4.522	6268.653
4.524	4548.653
4.526	2136.653
4.528	2229.653
4.530	2476.653
4.532	2740.653
4.534	3309.653
4.536	1168.653
4.538	1138.653
4.540	-756.347
4.542	-1633.347
4.544	-1486.347
4.546	-2887.347
4.548	-2482.347
4.550	1541.653
4.552	5723.653
4.554	6565.653
4.556	3614.653
4.558	3931.653
4.560	7412.653
4.562	8883.653
4.564	9850.653
4.566	9654.653
4.568	9013.653
4.570	8335.653
4.572	6521.653
4.574	3813.653
4.576	2207.653
4.578	1152.653
4.580	-1102.347
4.582	-655.347
4.584	117.653
4.586	-71.347
4.588	-71.347
4.590	2252.653
4.592	5734.653
4.594	8672.653
4.596	6602.653
4.598	5923.653
4.600	8632.653
4.602	9323.653
4.604	8823.653
4.606	6048.653
4.608	6169.653
4.610	9826.653
4.612	8257.653
4.614	4884.653
4.616	2909.653
4.618	954.653
4.620	49.653
4.622	402.653
4.624	688.653
4.626	1220.653
4.628	2008.653
4.630	3030.653
4.632	4134.653
4.634	6666.653
4.636	6182.653
4.638	5769.653
4.640	8662.653
4.642	10514.653
4.644	10218.653
4.646	8746.653
4.648	7076.653
4.650	5009.653
4.652	3107.653
4.654	788.653
4.656	112.653
4.658	-2776.347
4.660	-5190.347
4.662	-4842.347
4.664	-4610.347
4.666	-4025.347
4.668	-1910.347
4.670	-177.347
4.672	390.653
4.674	-69.347
4.676	-633.347
4.678	1442.653
4.680	2122.653
4.682	2590.653
4.684	1166.653
4.686	-320.347
4.688	846.653
4.690	25.653
4.692	-1363.347
4.694	-3532.347
4.696	-5259.347
4.698	-6863.347
4.700	-7055.347
4.702	-7283.347
4.704	-8160.347
4.706	-5858.347
4.708	-4501.347
4.710	-4103.347
4.712	-2689.347
4.714	-2048.347
4.716	-1968.347
4.718	1662.653
4.720	2772.653
4.722	-34.347
4.724	-1982.347
4.726	-4177.347
4.728	-6030.347
4.730	-6595.347
4.732	-8294.347
4.734	-5919.347
4.736	-3194.347
4.738	-4563.347
4.740	-8556.347
4.742	-11715.347
4.744	-11757.347
4.746	-8633.347
4.748	-5104.347
4.750	-5372.347
4.752	-6087.347
4.754	-4882.347
4.756	-3277.347
4.758	-2177.347
4.760	-902.347
4.762	363.653
4.764	1144.653
4.766	26.653
4.768	-1902.347
4.770	-3647.347
4.772	-4785.347
4.774	-7557.347
4.776	-9453.347
4.778	-10241.347
4.780	-9637.347
4.782	-11269.347
4.784	-12573.347
4.786	-12709.347
4.788	-11102.347
4.790	-6733.347
4.792	-3622.347
4.794	-3490.347
4.796	-3402.347
4.798	-774.347
4.800	-630.347
4.802	-2341.347
4.804	38.653
4.806	556.653
4.808	-2331.347
4.810	-4898.347
4.812	-7665.347
4.814	-10338.347
4.816	-10266.347
4.818	-10202.347
4.820	-11403.347
4.822	-11937.347
4.824	-11330.347
4.826	-11129.347
4.828	-11044.347
4.830	-9858.347
4.832	-7842.347
4.834	-5682.347
4.836	-3417.347
4.838	-285.347
4.840	-911.347
4.842	-269.347
4.844	381.653
4.846	-1588.347
4.848	-1841.347
4.850	-2150.347
4.852	-4682.347
4.854	-8192.347
4.856	-11346.347
4.858	-12933.347
4.860	-13150.347
4.862	-15770.347
4.864	-14797.347
4.866	-10863.347
4.868	-9407.347
4.870	-6015.347
4.872	-3652.347
4.874	-4756.347
4.876	-6058.347
4.878	-2583.347
4.880	-727.347
4.882	-85.347
4.884	-305.347
4.886	-797.347
4.888	-1977.347
4.890	-3219.347
4.892	-5472.347
4.894	-9937.347
4.896	-12285.347
4.898	-12227.347
4.900	-12017.347
4.902	-9682.347
4.904	-8640.347
4.906	-7220.347
4.908	-6952.347
4.910	-5882.347
4.912	-5635.347
4.914	-4617.347
4.916	-1307.347
4.918	-594.347
4.920	-1380.347
4.922	-857.347
4.924	-705.347
4.926	-1268.347
4.928	-3758.347
4.930	-5105.347
4.932	-6980.347
4.934	-9321.347
4.936	-8757.347
4.938	-11350.347
4.940	-11875.347
4.942	-11404.347
4.944	-12453.347
4.946	-11474.347
4.948	-8442.347
4.950	-4235.347
4.952	-4374.347
4.954	-4628.347
4.956	-2260.347
4.958	-1338.347
4.960	-196.347
4.962	460.653
4.964	109.653
4.966	-485.347
4.968	549.653
4.970	-1110.347
4.972	-4493.347
4.974	-7572.347
4.976	-8949.347
4.978	-9578.347
4.980	-10947.347
4.982	-11422.347
4.984	-10338.347
4.986	-10087.347
4.988	-9033.347
4.990	-7643.347
4.992	-7795.347
4.994	-3449.347
4.996	2244.653
4.998	2506.653
5.000	-199.347
5.002	-993.347
5.004	-122.347
5.006	-872.347
5.008	-3822.347
5.010	-7462.347
5.012	-8057.347
5.014	-9110.347
5.016	-7432.347
5.018	-6518.347
5.020	-8791.347
5.022	-9719.347
5.024	-9410.347
5.026	-8650.347
5.028	-8692.347
5.030	-8357.347
5.032	-4356.347
5.034	-440.347
5.036	1531.653
5.038	1505.653
5.040	1044.653
5.042	-518.347
5.044	-1100.347
5.046	-213.347
5.048	-1256.347
5.050	-4427.347
5.052	-6518.347
5.054	-8989.347
5.056	-11663.347
5.058	-12161.347
5.060	-9574.347
5.062	-9888.347
5.064	-12013.347
5.066	-10087.347
5.068	-7348.347
5.070	-6646.347
5.072	-6323.347
5.074	-3340.347
5.076	1764.653
5.078	3327.653
5.080	2977.653
5.082	2148.653
5.084	2563.653
5.086	893.653
5.088	-2432.347
5.090	-3628.347
5.092	-5056.347
5.094	-7492.347
5.096	-8982.347
5.098	-10483.347
5.100	-10902.347
5.102	-10507.347
5.104	-8537.347
5.106	-7461.347
5.108	-8092.347
5.110	-8117.347
5.112	-6147.347
5.114	-2135.347
5.116	-1591.347
5.118	653.653
5.120	2053.653
5.122	653.653
5.124	-648.347
5.126	-1081.347
5.128	-1368.347
5.130	-4552.347
5.132	-6202.347
5.134	-7387.347
5.136	-10023.347
5.138	-9550.347
5.140	-9037.347
5.142	-8298.347
5.144	-7782.347
5.146	-8777.347
5.148	-10585.347
5.150	-11899.347
5.152	-8843.347
5.154	400.653
5.156	4222.653
5.158	5468.653
5.160	4099.653
5.162	2552.653
5.164	3156.653
5.166	3438.653
5.168	3106.653
5.170	771.653
5.172	-1705.347
5.174	-4721.347
5.176	-7025.347
5.178	-6635.347
5.180	-7005.347
5.182	-7640.347
5.184	-7908.347
5.186	-7390.347
5.188	-6264.347
5.190	-5087.347
5.192	-4087.347
5.194	-255.347
5.196	2186.653
5.198	2405.653
5.200	2324.653
5.202	3347.653
5.204	2728.653
5.206	1534.653
5.208	294.653
5.210	-655.347
5.212	-1175.347
5.214	-1411.347
5.216	-3434.347
5.218	-6192.347
5.220	-8397.347
5.222	-9417.347
5.224	-11061.347
5.226	-9928.347
5.228	-8047.347
5.230	-8614.347
5.232	-5350.347
5.234	-2.347
5.236	758.653
5.238	51.653
5.240	761.653
5.242	2064.653
5.244	-64.347
5.246	370.653
5.248	2696.653
5.250	1469.653
5.252	-2570.347
5.254	-6596.347
5.256	-9312.347
5.258	-10872.347
5.260	-10376.347
5.262	-8804.347
5.264	-7730.347
5.266	-6335.347
5.268	-7201.347
5.270	-6716.347
5.272	-5078.347
5.274	-1630.347
5.276	-1040.347
5.278	-53.347
5.280	1079.653
5.282	897.653
5.284	262.653
5.286	862.653
5.288	-15.347
5.290	-2237.347
5.292	-4704.347
5.294	-6632.347
5.296	-7398.347
5.298	-8237.347
5.300	-10091.347
5.302	-10911.347
5.304	-10078.347
5.306	-8230.347
5.308	-8668.347
5.310	-8524.347
5.312	-1658.347
5.314	291.653
5.316	-457.347
5.318	364.653
5.320	2147.653
5.322	1723.653
5.324	-920.347
5.326	-2773.347
5.328	-3800.347
5.330	-4519.347
5.332	-5059.347
5.334	-5454.347
5.336	-5846.347
5.338	-7823.347
5.340	-9981.347
5.342	-11601.347
5.344	-10858.347
5.346	-7996.347
5.348	-8238.347
5.350	-7953.347
5.352	-2373.347
5.354	153.653
5.356	-528.347
5.358	-187.347
5.360	2124.653
5.362	1172.653
5.364	904.653
5.366	-63.347
5.368	-942.347
5.370	-1557.347
5.372	-1701.347
5.374	-2568.347
5.376	-3440.347
5.378	-3192.347
5.380	-1899.347
5.382	333.653
5.384	3256.653
5.386	6004.653
5.388	7826.653
5.390	11572.653
5.392	16662.653
5.394	21032.653
5.396	25705.653
5.398	29032.653
5.400	30124.653
5.402	31291.653
5.404	33629.653
5.406	35251.653
5.408	37184.653
5.410	37752.653
5.412	36271.653
5.414	32279.653
5.416	25846.653
5.418	20167.653
5.420	16492.653
5.422	13248.653
5.424	8287.653
5.426	4801.653
5.428	556.653
5.430	-604.347
5.432	131.653
5.434	-3455.347
5.436	-3692.347
5.438	2034.653
5.440	6766.653
5.442	7050.653
5.444	4292.653
5.446	1826.653
5.448	502.653
5.450	-689.347
5.452	-5077.347
5.454	-8114.347
5.456	-7685.347
5.458	-8307.347
5.460	-10698.347
5.462	-13417.347
5.464	-12082.347
5.466	-9669.347
5.468	-10670.347
5.470	-9727.347
5.472	-4138.347
5.474	-312.347
5.476	-336.347
5.478	-1612.347
5.480	-2395.347
5.482	-1636.347
5.484	898.653
5.486	-468.347
5.488	-3423.347
5.490	-4016.347
5.492	-4678.347
5.494	-7608.347
5.496	-8290.347
5.498	-9133.347
5.500	-9633.347
5.502	-8285.347
5.504	-7291.347
5.506	-7460.347
5.508	-7715.347
5.510	-6212.347
5.512	-3046.347
5.514	-972.347
5.516	1177.653
5.518	1495.653
5.520	9.653
5.522	-1527.347
5.524	-1188.347
5.526	-591.347
5.528	-448.347
5.530	-2648.347
5.532	-4132.347
5.534	-6822.347
5.536	-8575.347
5.538	-8408.347
5.540	-8977.347
5.542	-9541.347
5.544	-8275.347
5.546	-7075.347
5.548	-7624.347
5.550	-4187.347
5.552	-721.347
5.554	2030.653
5.556	2023.653
5.558	2392.653
5.560	3691.653
5.562	3754.653
5.564	1735.653
5.566	-43.347
5.568	-1099.347
5.570	-2247.347
5.572	-3344.347
5.574	-5082.347
5.576	-6367.347
5.578	-6541.347
5.580	-7823.347
5.582	-8774.347
5.584	-8494.347
5.586	-8325.347
5.588	-6660.347
5.590	-3407.347
5.592	-1996.347
5.594	-767.347
5.596	1758.653
5.598	2282.653
5.600	457.653
5.602	1693.653
5.604	1966.653
5.606	-155.347
5.608	-1763.347
5.610	-2568.347
5.612	-2563.347
5.614	-4947.347
5.616	-7216.347
5.618	-6717.347
5.620	-7199.347
5.622	-6604.347
5.624	-6427.347
5.626	-6427.347
5.628	-4330.347
5.630	-2499.347
5.632	-76.347
5.634	1449.653
5.636	782.653
5.638	1849.653
5.640	3716.653
5.642	6024.653
5.644	6146.653
5.646	4183.653
5.648	1641.653
5.650	-425.347
5.652	-4819.347
5.654	-7643.347
5.656	-6537.347
5.658	-6246.347
5.660	-6856.347
5.662	-6987.347
5.664	-5843.347
5.666	-6599.347
5.668	-6263.347
5.670	-2337.347
5.672	-704.347
5.674	1761.653
5.676	3636.653
5.678	3100.653
5.680	3712.653
5.682	5074.653
5.684	5614.653
5.686	4346.653
5.688	2042.653
5.690	699.653
5.692	256.653
5.694	146.653
5.696	-2075.347
5.698	-4905.347
5.700	-4977.347
5.702	-5991.347
5.704	-6103.347
5.706	-4413.347
5.708	-2342.347
5.710	1749.653
5.712	3073.653
5.714	2149.653
5.716	3760.653
5.718	6142.653
5.720	8837.653
5.722	9321.653
5.724	6894.653
5.726	4550.653
5.728	3116.653
5.730	656.653
5.732	-1385.347
5.734	-2870.347
5.736	-3855.347
5.738	-3805.347
5.740	-3128.347
5.742	-5013.347
5.744	-5778.347
5.746	-2935.347
5.748	2057.653
5.750	3063.653
5.752	3336.653
5.754	5469.653
5.756	8755.653
5.758	10754.653
5.760	10149.653
5.762	8886.653
5.764	7796.653
5.766	5765.653
5.768	3932.653
5.770	2214.653
5.772	-2106.347
5.774	-4813.347
5.776	-3235.347
5.778	246.653
5.780	962.653
5.782	111.653
5.784	46.653
5.786	1439.653
5.788	3251.653
5.790	5036.653
5.792	6799.653
5.794	9437.653
5.796	12172.653
5.798	12869.653
5.800	10586.653
5.802	10634.653
5.804	10631.653
5.806	11551.653
5.808	10801.653
5.810	7306.653
5.812	4345.653
5.814	3602.653
5.816	2906.653
5.818	2950.653
5.820	2852.653
5.822	1579.653
5.824	1207.653
5.826	1582.653
5.828	3866.653
5.830	6101.653
5.832	8941.653
5.834	11600.653
5.836	12820.653
5.838	13275.653
5.840	12846.653
5.842	12342.653
5.844	11191.653
5.846	10204.653
5.848	9097.653
5.850	6601.653
5.852	4200.653
5.854	4424.653
5.856	3527.653
5.858	1588.653
5.860	1310.653
5.862	1641.653
5.864	1002.653
5.866	2780.653
5.868	5861.653
5.870	8482.653
5.872	10029.653
5.874	8816.653
5.876	9930.653
5.878	12974.653
5.880	15890.653
5.882	15343.653
5.884	13167.653
5.886	10026.653
5.888	7419.653
5.890	4632.653
5.892	4097.653
5.894	4501.653
5.896	2489.653
5.898	1659.653
5.900	984.653
5.902	19.653
5.904	-296.347
5.906	183.653
5.908	2866.653
5.910	4229.653
5.912	4528.653
5.914	4226.653
5.916	4072.653
5.918	5253.653
5.920	7520.653
5.922	9415.653
5.924	6963.653
5.926	4651.653
5.928	4356.653
5.930	2776.653
5.932	1036.653
5.934	-2397.347
5.936	-5318.347
5.938	-5712.347
5.940	-4607.347
5.942	-4080.347
5.944	-4451.347
5.946	-661.347
5.948	44.653
5.950	-1264.347
5.952	-1371.347
5.954	-1020.347
5.956	599.653
5.958	4449.653
5.960	6416.653
5.962	6703.653
5.964	4998.653
5.966	1428.653
5.968	369.653
5.970	-805.347
5.972	-2332.347
5.974	-4121.347
5.976	-6899.347
5.978	-8469.347
5.980	-9438.347
5.982	-11532.347
5.984	-12439.347
5.986	-8177.347
5.988	-5379.347
5.990	-5247.347
5.992	-3530.347
5.994	99.653
5.996	5677.653
5.998	5388.653
6.000	3087.653
6.002	2595.653
6.004	145.653
6.006	-728.347
6.008	-2347.347
6.010	-4047.347
6.012	-5439.347
6.014	-6191.347
6.016	-8462.347
6.018	-11047.347
6.020	-12077.347
6.022	-12603.347
6.024	-5673.347
6.026	-1717.347
6.028	-2617.347
6.030	-2045.347
6.032	-667.347
6.034	-423.347
6.036	667.653
6.038	2201.653
6.040	2605.653
6.042	2146.653
6.044	1387.653
6.046	771.653
6.048	-1347.347
6.050	-4165.347
6.052	-6403.347
6.054	-8017.347
6.056	-9413.347
6.058	-10092.347
6.060	-9870.347
6.062	-11170.347
6.064	-11200.347
6.066	-6963.347
6.068	-3647.347
6.070	-1106.347
6.072	565.653
6.074	680.653
6.076	1531.653
6.078	874.653
6.080	3677.653
6.082	4207.653
6.084	667.653
6.086	-1683.347
6.088	-3913.347
6.090	-5842.347
6.092	-6390.347
6.094	-5994.347
6.096	-6803.347
6.098	-8699.347
6.100	-8958.347
6.102	-10218.347
6.104	-9263.347
6.106	-4924.347
6.108	-3287.347
6.110	-3129.347
6.112	-1290.347
6.114	1036.653
6.116	1478.653
6.118	1401.653
6.120	666.653
6.122	-292.347
6.124	-1040.347
6.126	-1289.347
6.128	-2127.347
6.130	-3542.347
6.132	-6957.347
6.134	-9030.347
6.136	-9695.347
6.138	-10493.347
6.140	-11080.347
6.142	-9871.347
6.144	-8714.347
6.146	-7413.347
6.148	-4601.347
6.150	-1078.347
6.152	2884.653
6.154	3141.653
6.156	3108.653
6.158	3319.653
6.160	9.653
6.162	-4394.347
6.164	-4580.347
6.166	-157.347
6.168	373.653
6.170	-4874.347
6.172	-8549.347
6.174	-7686.347
6.176	-5050.347
6.178	-6293.347
6.180	-9402.347
6.182	-10631.347
6.184	-6802.347
6.186	-5245.347
6.188	-3893.347
6.190	-1092.347
6.192	1657.653
6.194	870.653
6.196	1191.653
6.198	1431.653
6.200	2166.653
6.202	906.653
6.204	-683.347
6.206	-980.347
6.208	-2400.347
6.210	-3980.347
6.212	-6288.347
6.214	-6985.347
6.216	-7094.347
6.218	-7775.347
6.220	-9436.347
6.222	-9470.347
6.224	-5083.347
6.226	-4562.347
6.228	-3334.347
6.230	-842.347
6.232	299.653
6.234	-385.347
6.236	-637.347
6.238	1774.653
6.240	1884.653
6.242	1389.653
6.244	832.653
6.246	1132.653
6.248	-127.347
6.250	-3714.347
6.252	-5645.347
6.254	-6555.347
6.256	-7663.347
6.258	-8875.347
6.260	-9551.347
6.262	-8558.347
6.264	-5757.347
6.266	-5281.347
6.268	-4357.347
6.270	-3572.347
6.272	-1652.347
6.274	650.653
6.276	518.653
6.278	521.653
6.280	232.653
6.282	-27.347
6.284	-1847.347
6.286	-3469.347
6.288	-5310.347
6.290	-5236.347
6.292	-4175.347
6.294	-7353.347
6.296	-11627.347
6.298	-11026.347
6.300	-11902.347
6.302	-10115.347
6.304	-5078.347
6.306	-3135.347
6.308	-2725.347
6.310	-835.347
6.312	2211.653
6.314	2652.653
6.316	3244.653
6.318	2681.653
6.320	2382.653
6.322	4712.653
6.324	3912.653
6.326	922.653
6.328	-2667.347
6.330	-3828.347
6.332	-4788.347
6.334	-5665.347
6.336	-5837.347
6.338	-6846.347
6.340	-9257.347
6.342	-9457.347
6.344	-5772.347
6.346	-4384.347
6.348	-2650.347
6.350	-1655.347
6.352	197.653
6.354	1465.653
6.356	2300.653
6.358	3340.653
6.360	4176.653
6.362	3972.653
6.364	2184.653
6.366	-42.347
6.368	-2122.347
6.370	-2948.347
6.372	-4718.347
6.374	-6675.347
6.376	-8560.347
6.378	-11022.347
6.380	-10275.347
6.382	-6013.347
6.384	-4921.347
6.386	-2718.347
6.388	298.653
6.390	1197.653
6.392	1250.653
6.394	2151.653
6.396	1982.653
6.398	2698.653
6.400	4558.653
6.402	5571.653
6.404	4579.653
6.406	3801.653
6.408	2594.653
6.410	552.653
6.412	-862.347
6.414	-2453.347
6.416	-4535.347
6.418	-7828.347
6.420	-9314.347
6.422	-8018.347
6.424	-5427.347
6.426	-3308.347
6.428	-1081.347
6.430	880.653
6.432	3792.653
6.434	6109.653
6.436	7163.653
6.438	5805.653
6.440	5098.653
6.442	3950.653
6.444	2966.653
6.446	346.653
6.448	-2045.347
6.450	-2978.347
6.452	-4064.347
6.454	-7075.347
6.456	-8781.347
6.458	-10947.347
6.460	-12605.347
6.462	-8512.347
6.464	-5931.347
6.466	-3547.347
6.468	-2452.347
6.470	-1125.347
6.472	1153.653
6.474	2459.653
6.476	3126.653
6.478	2560.653
6.480	2973.653
6.482	2206.653
6.484	56.653
6.486	-1405.347
6.488	-2493.347
6.490	-4516.347
6.492	-6504.347
6.494	-7786.347
6.496	-10421.347
6.498	-13823.347
6.500	-12205.347
6.502	-8351.347
6.504	-6701.347
6.506	-5606.347
6.508	-2997.347
6.510	-625.347
6.512	151.653
6.514	805.653
6.516	1507.653
6.518	604.653
6.520	-552.347
6.522	594.653
6.524	1566.653
6.526	-1024.347
6.528	-4578.347
6.530	-7070.347
6.532	-7188.347
6.534	-7132.347
6.536	-10122.347
6.538	-13452.347
6.540	-13911.347
6.542	-10750.347
6.544	-9952.347
6.546	-7125.347
6.548	-1444.347
6.550	1821.653
6.552	1541.653
6.554	-628.347
6.556	-85.347
6.558	1183.653
6.560	2877.653
6.562	3669.653
6.564	1429.653
6.566	-1152.347
6.568	-1505.347
6.570	-5003.347
6.572	-7137.347
6.574	-6237.347
6.576	-8470.347
6.578	-13088.347
6.580	-11780.347
6.582	-9243.347
6.584	-6202.347
6.586	-2922.347
6.588	-102.347
6.590	1566.653
6.592	3666.653
6.594	5328.653
6.596	7339.653
6.598	9382.653
6.600	11367.653
6.602	13828.653
6.604	14492.653
6.606	15177.653
6.608	17884.653
6.610	16621.653
6.612	16753.653
6.614	18747.653
6.616	19633.653
6.618	19628.653
6.620	23327.653
6.622	27972.653
6.624	29106.653
6.626	31889.653
6.628	36191.653
6.630	37612.653
6.632	38882.653
6.634	38052.653
6.636	35431.653
6.638	32634.653
6.640	28134.653
6.642	22565.653
6.644	15477.653
6.646	9004.653
6.648	3244.653
6.650	-227.347
6.652	-3569.347
6.654	-4137.347
6.656	-5399.347
6.658	-7808.347
6.660	-6858.347
6.662	-8348.347
6.664	-7972.347
6.666	-6627.347
6.668	-4362.347
6.670	-1593.347
6.672	-384.347
6.674	-578.347
6.676	-440.347
6.678	-844.347
6.680	-1387.347
6.682	-2460.347
6.684	-4350.347
6.686	-6277.347
6.688	-7883.347
6.690	-8720.347
6.692	-9498.347
6.694	-10195.347
6.696	-13483.347
6.698	-15352.347
6.700	-13749.347
6.702	-12293.347
6.704	-7991.347
6.706	-6294.347
6.708	-5663.347
6.710	-2733.347
6.712	158.653
6.714	616.653
6.716	2961.653
6.718	4027.653
6.720	2214.653
6.722	-125.347
6.724	-966.347
6.726	-860.347
6.728	-2190.347
6.730	-5215.347
6.732	-8540.347
6.734	-10944.347
6.736	-13297.347
6.738	-10608.347
6.740	-5345.347
6.742	-3402.347
6.744	-4790.347
6.746	-5292.347
6.748	-3582.347
6.750	-2017.347
6.752	-2208.347
6.754	-39.347
6.756	3949.653
6.758	4616.653
6.760	2440.653
6.762	454.653
6.764	-955.347
6.766	-2210.347
6.768	-2530.347
6.770	-4393.347
6.772	-5415.347
6.774	-6825.347
6.776	-7418.347
6.778	-5678.347
6.780	-6157.347
6.782	-7294.347
6.784	-7149.347
6.786	-5655.347
6.788	-4077.347
6.790	-2392.347
6.792	-890.347
6.794	782.653
6.796	1132.653
6.798	3980.653
6.800	4772.653
6.802	3335.653
6.804	1351.653
6.806	-551.347
6.808	-2467.347
6.810	-4641.347
6.812	-6332.347
6.814	-6368.347
6.816	-8172.347
6.818	-8152.347
6.820	-7805.347
6.822	-7352.347
6.824	-5075.347
6.826	-2647.347
6.828	-305.347
6.830	1469.653
6.832	1861.653
6.834	832.653
6.836	2367.653
6.838	2949.653
6.840	2288.653
6.842	2052.653
6.844	1746.653
6.846	873.653
6.848	244.653
6.850	-1919.347
6.852	-5584.347
6.854	-8620.347
6.856	-7420.347
6.858	-5605.347
6.860	-6827.347
6.862	-7869.347
6.864	-7440.347
6.866	-5530.347
6.868	-1772.347
6.870	-689.347
6.872	-233.347
6.874	1058.653
6.876	3814.653
6.878	5769.653
6.880	6877.653
6.882	5109.653
6.884	4914.653
6.886	4046.653
6.888	-553.347
6.890	-4083.347
6.892	-4495.347
6.894	-6222.347
6.896	-7788.347
6.898	-5543.347
6.900	-3492.347
6.902	-3435.347
6.904	-3505.347
6.906	-2284.347
6.908	-45.347
6.910	2035.653
6.912	4117.653
6.914	6297.653
6.916	7049.653
6.918	6347.653
6.920	5474.653
6.922	4585.653
6.924	3087.653
6.926	1393.653
6.928	1071.653
6.930	-787.347
6.932	-3513.347
6.934	-5810.347
6.936	-6269.347
6.938	-4949.347
6.940	-3082.347
6.942	-1748.347
6.944	-1680.347
6.946	-1165.347
6.948	1768.653
6.950	2995.653
6.952	4396.653
6.954	6053.653
6.956	6386.653
6.958	5277.653
6.960	5246.653
6.962	6030.653
6.964	4805.653
6.966	3694.653
6.968	3072.653
6.970	875.653
6.972	452.653
6.974	171.653
6.976	-114.347
6.978	371.653
6.980	-1418.347
6.982	-1525.347
6.984	333.653
6.986	2403.653
6.988	3296.653
6.990	4657.653
6.992	6280.653
6.994	10352.653
6.996	11604.653
6.998	10682.653
7.000	10472.653
7.002	8730.653
7.004	7547.653
7.006	6217.653
7.008	3629.653
7.010	-329.347
7.012	-2446.347
7.014	-3822.347
7.016	99.653
7.018	1655.653
7.020	2582.653
7.022	4265.653
7.024	5742.653
7.026	6699.653
7.028	8180.653
7.030	10683.653
7.032	10914.653
7.034	13044.653
7.036	11962.653
7.038	11634.653
7.040	13305.653
7.042	12944.653
7.044	11257.653
7.046	9011.653
7.048	5870.653
7.050	5608.653
7.052	5231.653
7.054	3112.653
7.056	5271.653
7.058	6079.653
7.060	3355.653
7.062	2096.653
7.064	4104.653
7.066	8739.653
7.068	11337.653
7.070	13276.653
7.072	14236.653
7.074	14839.653
7.076	13589.653
7.078	11989.653
7.080	13577.653
7.082	14649.653
7.084	12532.653
7.086	10418.653
7.088	7536.653
7.090	4774.653
7.092	2033.653
7.094	-109.347
7.096	2244.653
7.098	3814.653
7.100	3157.653
7.102	1301.653
7.104	2319.653
7.106	5869.653
7.108	8204.653
7.110	9326.653
7.112	10577.653
7.114	10861.653
7.116	8752.653
7.118	9138.653
7.120	9609.653
7.122	8534.653
7.124	10308.653
7.126	10031.653
7.128	5556.653
7.130	1323.653
7.132	-3091.347
7.134	-4988.347
7.136	-3178.347
7.138	-1653.347
7.140	279.653
7.142	1395.653
7.144	149.653
7.146	-388.347
7.148	-1130.347
7.150	347.653
7.152	3842.653
7.154	6073.653
7.156	5596.653
7.158	5466.653
7.160	4617.653
7.162	4230.653
7.164	3804.653
7.166	1320.653
7.168	-1833.347
7.170	-4127.347
7.172	-7493.347
7.174	-10295.347
7.176	-6347.347
7.178	-2832.347
7.180	-2540.347
7.182	-2333.347
7.184	-2875.347
7.186	-2446.347
7.188	-852.347
7.190	801.653
7.192	2689.653
7.194	3257.653
7.196	2646.653
7.198	2309.653
7.200	1940.653
7.202	2477.653
7.204	548.653
7.206	-1292.347
7.208	-4049.347
7.210	-5657.347
7.212	-7585.347
7.214	-8063.347
7.216	-8832.347
7.218	-7960.347
7.220	-8473.347
7.222	-9244.347
7.224	-9501.347
7.226	-7399.347
7.228	-2508.347
7.230	757.653
7.232	2313.653
7.234	3291.653
7.236	1831.653
7.238	-93.347
7.240	436.653
7.242	999.653
7.244	626.653
7.246	68.653
7.248	-746.347
7.250	-6421.347
7.252	-8895.347
7.254	-6995.347
7.256	-8005.347
7.258	-8487.347
7.260	-8940.347
7.262	-8924.347
7.264	-7460.347
7.266	-3954.347
7.268	-1272.347
7.270	32.653
7.272	-455.347
7.274	1024.653
7.276	2178.653
7.278	-112.347
7.280	-1655.347
7.282	-606.347
7.284	558.653
7.286	-2213.347
7.288	-5920.347
7.290	-9245.347
7.292	-8945.347
7.294	-7749.347
7.296	-10484.347
7.298	-13342.347
7.300	-14359.347
7.302	-10082.347
7.304	-3137.347
7.306	-3470.347
7.308	-3363.347
7.310	-688.347
7.312	2244.653
7.314	4379.653
7.316	3280.653
7.318	3538.653
7.320	3787.653
7.322	1939.653
7.324	-70.347
7.326	-2275.347
7.328	-6143.347
7.330	-10757.347
7.332	-11191.347
7.334	-8723.347
7.336	-7643.347
7.338	-6798.347
7.340	-6402.347
7.342	-7167.347
7.344	-7755.347
7.346	-5410.347
7.348	-3603.347
7.350	-1907.347
7.352	153.653
7.354	1345.653
7.356	1863.653
7.358	1184.653
7.360	-195.347
7.362	247.653
7.364	-1157.347
7.366	-3488.347
7.368	-4957.347
7.370	-11085.347
7.372	-13315.347
7.374	-8397.347
7.376	-4575.347
7.378	-5327.347
7.380	-6685.347
7.382	-7000.347
7.384	-5430.347
7.386	-3011.347
7.388	-979.347
7.390	-1545.347
7.392	-955.347
7.394	1990.653
7.396	3059.653
7.398	1537.653
7.400	-0.347
7.402	-422.347
7.404	972.653
7.406	14.653
7.408	-2820.347
7.410	-6389.347
7.412	-5257.347
7.414	-6068.347
7.416	-8165.347
7.418	-9279.347
7.420	-9047.347
7.422	-7407.347
7.424	-5407.347
7.426	-5439.347
7.428	-4597.347
7.430	62.653
7.432	1666.653
7.434	2298.653
7.436	2927.653
7.438	2591.653
7.440	1969.653
7.442	136.653
7.444	-517.347
7.446	-1358.347
7.448	-4528.347
7.450	-7913.347
7.452	-7052.347
7.454	-7055.347
7.456	-8196.347
7.458	-11468.347
7.460	-12213.347
7.462	-7209.347
7.464	-4913.347
7.466	-3522.347
7.468	-504.347
7.470	658.653
7.472	194.653
7.474	2782.653
7.476	3902.653
7.478	3167.653
7.480	3262.653
7.482	1235.653
7.484	-547.347
7.486	-1751.347
7.488	-5176.347
7.490	-7755.347
7.492	-7497.347
7.494	-7448.347
7.496	-7867.347
7.498	-7227.347
7.500	-5711.347
7.502	-4220.347
7.504	-3748.347
7.506	-5376.347
7.508	-2912.347
7.510	1064.653
7.512	1471.653
7.514	3431.653
7.516	1813.653
7.518	-563.347
7.520	-715.347
7.522	-1528.347
7.524	-355.347
7.526	-1075.347
7.528	-5763.347
7.530	-6059.347
7.532	-3040.347
7.534	-5963.347
7.536	-7809.347
7.538	-7908.347
7.540	-8526.347
7.542	-7042.347
7.544	-4570.347
7.546	-3530.347
7.548	-3140.347
7.550	-987.347
7.552	826.653
7.554	2830.653
7.556	4359.653
7.558	862.653
7.560	-2522.347
7.562	-729.347
7.564	2811.653
7.566	1777.653
7.568	-1793.347
7.570	-4330.347
7.572	-5537.347
7.574	-7445.347
7.576	-8562.347
7.578	-8528.347
7.580	-8191.347
7.582	-7682.347
7.584	-5657.347
7.586	-2702.347
7.588	-471.347
7.590	641.653
7.592	2621.653
7.594	5560.653
7.596	5603.653
7.598	5036.653
7.600	3592.653
7.602	992.653
7.604	-810.347
7.606	-1327.347
7.608	-3832.347
7.610	-5636.347
7.612	-4149.347
7.614	-4977.347
7.616	-7100.347
7.618	-7673.347
7.620	-7975.347
7.622	-5195.347
7.624	-1515.347
7.626	-221.347
7.628	311.653
7.630	1311.653
7.632	3586.653
7.634	6401.653
7.636	5475.653
7.638	5189.653
7.640	4854.653
7.642	4311.653
7.644	4256.653
7.646	3178.653
7.648	-106.347
7.650	-1177.347
7.652	-3424.347
7.654	-4732.347
7.656	-4440.347
7.658	-5689.347
7.660	-6272.347
7.662	-3297.347
7.664	-1071.347
7.666	2631.653
7.668	3866.653
7.670	3375.653
7.672	3084.653
7.674	2984.653
7.676	3394.653
7.678	3384.653
7.680	773.653
7.682	1007.653
7.684	1721.653
7.686	-847.347
7.688	-2326.347
7.690	-3133.347
7.692	-5256.347
7.694	-7414.347
7.696	-10874.347
7.698	-10782.347
7.700	-9255.347
7.702	-8327.347
7.704	-6613.347
7.706	-4261.347
7.708	-2640.347
7.710	-104.347
7.712	1992.653
7.714	2713.653
7.716	1732.653
7.718	1817.653
7.720	1464.653
7.722	1431.653
7.724	771.653
7.726	-3332.347
7.728	-6604.347
7.730	-6318.347
7.732	-6555.347
7.734	-9341.347
7.736	-11338.347
7.738	-10195.347
7.740	-8242.347
7.742	-5988.347
7.744	-5799.347
7.746	-6009.347
7.748	-3228.347
7.750	1697.653
7.752	3256.653
7.754	3110.653
7.756	2773.653
7.758	2486.653
7.760	1696.653
7.762	-1202.347
7.764	-3798.347
7.766	-6974.347
7.768	-6932.347
7.770	-4123.347
7.772	-6458.347
7.774	-7131.347
7.776	-7127.347
7.778	-8949.347
7.780	-9257.347
7.782	-7302.347
7.784	-4600.347
7.786	-3972.347
7.788	-4073.347
7.790	-3029.347
7.792	3.653
7.794	1332.653
7.796	2929.653
7.798	4346.653
7.800	4672.653
7.802	3877.653
7.804	812.653
7.806	-3500.347
7.808	-5414.347
7.810	-6450.347
7.812	-6541.347
7.814	-5062.347
7.816	-3223.347
7.818	-2340.347
7.820	-1106.347
7.822	990.653
7.824	4179.653
7.826	7714.653
7.828	12830.653
7.830	16947.653
7.832	19363.653
7.834	21906.653
7.836	23621.653
7.838	27270.653
7.840	30384.653
7.842	30676.653
7.844	30073.653
7.846	28410.653
7.848	29831.653
7.850	30239.653
7.852	31494.653
7.854	32845.653
7.856	32877.653
7.858	29228.653
7.860	27301.653
7.862	26877.653
7.864	25297.653
7.866	22456.653
7.868	20917.653
7.870	17744.653
7.872	13749.653
7.874	10860.653
7.876	7902.653
7.878	5574.653
7.880	3501.653
7.882	2884.653
7.884	-980.347
7.886	-4587.347
7.888	-5033.347
7.890	-7355.347
7.892	-9127.347
7.894	-8681.347
7.896	-8195.347
7.898	-7677.347
7.900	-7912.347
7.902	-8635.347
7.904	-8977.347
7.906	-8233.347
7.908	-6255.347
7.910	-3965.347
7.912	-620.347
7.914	1440.653
7.916	1470.653
7.918	-391.347
7.920	-2253.347
7.922	-2737.347
7.924	-5101.347
7.926	-7468.347
7.928	-6479.347
7.930	-5782.347
7.932	-6742.347
7.934	-8633.347
7.936	-8812.347
7.938	-7994.347
7.940	-8213.347
7.942	-8243.347
7.944	-5368.347
7.946	-2875.347
7.948	-687.347
7.950	1814.653
7.952	3234.653
7.954	3757.653
7.956	2664.653
7.958	1614.653
7.960	1434.653
7.962	665.653
7.964	-2197.347
7.966	-4825.347
7.968	-6393.347
7.970	-6443.347
7.972	-5570.347
7.974	-7362.347
7.976	-8680.347
7.978	-9582.347
7.980	-9188.347
7.982	-6118.347
7.984	-1900.347
7.986	256.653
7.988	659.653
7.990	1432.653
7.992	4379.653
7.994	4144.653
7.996	944.653
7.998	1132.653
8.000	3534.653
8.002	3684.653
8.004	-602.347
8.006	-3164.347
8.008	-3364.347
8.010	-6587.347
8.012	-8131.347
8.014	-8793.347
8.016	-8641.347
8.018	-8490.347
8.020	-8302.347
8.022	-5508.347
8.024	-2766.347
8.026	-507.347
8.028	1209.653
8.030	2197.653
8.032	2234.653
8.034	4941.653
8.036	4854.653
8.038	3784.653
8.040	2020.653
8.042	-926.347
8.044	-4051.347
8.046	-2934.347
8.048	-3077.347
8.050	-2323.347
8.052	-2183.347
8.054	-3648.347
8.056	-5997.347
8.058	-7551.347
8.060	-7084.347
8.062	-6100.347
8.064	-6137.347
8.066	-4795.347
8.068	1009.653
8.070	5929.653
8.072	7056.653
8.074	7885.653
8.076	8079.653
8.078	5331.653
8.080	1264.653
8.082	-2990.347
8.084	-2627.347
8.086	440.653
8.088	-1961.347
8.090	-3385.347
8.092	-3520.347
8.094	-4415.347
8.096	-4922.347
8.098	-5765.347
8.100	-5270.347
8.102	-1118.347
8.104	1631.653
8.106	2592.653
8.108	4819.653
8.110	4705.653
8.112	4577.653
8.114	4450.653
8.116	5514.653
8.118	7084.653
8.120	5099.653
8.122	793.653
8.124	-362.347
8.126	332.653
8.128	-1030.347
8.130	-2706.347
8.132	-4334.347
8.134	-5022.347
8.136	-2860.347
8.138	-4012.347
8.140	-3863.347
8.142	-598.347
8.144	2724.653
8.146	6411.653
8.148	7810.653
8.150	6769.653
8.152	6453.653
8.154	6930.653
8.156	5894.653
8.158	5362.653
8.160	5398.653
8.162	3049.653
8.164	593.653
8.166	2023.653
8.168	1625.653
8.170	-690.347
8.172	-2240.347
8.174	-4020.347
8.176	-1810.347
8.178	-510.347
8.180	-687.347
8.182	-8.347
8.184	2609.653
8.186	4447.653
8.188	5332.653
8.190	7521.653
8.192	9910.653
8.194	9717.653
8.196	9745.653
8.198	11608.653
8.200	10836.653
8.202	7735.653
8.204	6409.653
8.206	6482.653
8.208	4951.653
8.210	3907.653
8.212	649.653
8.214	-893.347
8.216	948.653
8.218	701.653
8.220	1008.653
8.222	2889.653
8.224	5464.653
8.226	7974.653
8.228	10190.653
8.230	11178.653
8.232	11776.653
8.234	11369.653
8.236	11558.653
8.238	11893.653
8.240	12324.653
8.242	9808.653
8.244	7609.653
8.246	7490.653
8.248	5342.653
8.250	4874.653
8.252	4522.653
8.254	4192.653
8.256	4184.653
8.258	3320.653
8.260	2719.653
8.262	1470.653
8.264	2634.653
8.266	8241.653
8.268	13283.653
8.270	15551.653
8.272	16176.653
8.274	16116.653
8.276	18012.653
8.278	18163.653
8.280	14569.653
8.282	11557.653
8.284	12486.653
8.286	10999.653
8.288	7815.653
8.290	3925.653
8.292	1585.653
8.294	2952.653
8.296	6261.653
8.298	8239.653
8.300	8772.653
8.302	9436.653
8.304	10108.653
8.306	9942.653
8.308	12200.653
8.310	14360.653
8.312	13947.653
8.314	12795.653
8.316	12834.653
8.318	13033.653
8.320	11000.653
8.322	12169.653
8.324	13010.653
8.326	9437.653
8.328	5980.653
8.330	5557.653
8.332	5839.653
8.334	5474.653
8.336	4455.653
8.338	3194.653
8.340	3096.653
8.342	2207.653
8.344	2204.653
8.346	3040.653
8.348	2243.653
8.350	5357.653
8.352	13032.653
8.354	16937.653
8.356	14960.653
8.358	11741.653
8.360	8426.653
8.362	5437.653
8.364	5702.653
8.366	4704.653
8.368	1624.653
8.370	-655.347
8.372	-1938.347
8.374	-885.347
8.376	-2457.347
8.378	-6292.347
8.380	-5830.347
8.382	-800.347
8.384	697.653
8.386	2051.653
8.388	3765.653
8.390	3132.653
8.392	4464.653
8.394	6534.653
8.396	5476.653
8.398	5226.653
8.400	3653.653
8.402	2027.653
8.404	1539.653
8.406	-1302.347
8.408	-4225.347
8.410	-5040.347
8.412	-5968.347
8.414	-6782.347
8.416	-5762.347
8.418	-3980.347
8.420	-3427.347
8.422	-3661.347
8.424	-1439.347
8.426	-762.347
8.428	-336.347
8.430	1316.653
8.432	3329.653
8.434	2893.653
8.436	2734.653
8.438	3962.653
8.440	2655.653
8.442	-1170.347
8.444	-2543.347
8.446	-3366.347
8.448	-4425.347
8.450	-4002.347
8.452	-6784.347
8.454	-9273.347
8.456	-8650.347
8.458	-7761.347
8.460	-6830.347
8.462	-6035.347
8.464	-4130.347
8.466	-844.347
8.468	2366.653
8.470	3271.653
8.472	2680.653
8.474	889.653
8.476	1568.653
8.478	1987.653
8.480	287.653
8.482	431.653
8.484	-622.347
8.486	-1574.347
8.488	-4359.347
8.490	-5982.347
8.492	-7868.347
8.494	-9130.347
8.496	-9452.347
8.498	-8282.347
8.500	-5956.347
8.502	-5235.347
8.504	-3927.347
8.506	-488.347
8.508	3814.653
8.510	4011.653
8.512	2342.653
8.514	1436.653
8.516	1473.653
8.518	609.653
8.520	-418.347
8.522	-302.347
8.524	-2077.347
8.526	-3581.347
8.528	-5707.347
8.530	-7347.347
8.532	-9068.347
8.534	-8159.347
8.536	-7158.347
8.538	-7528.347
8.540	-6667.347
8.542	-5478.347
8.544	-4950.347
8.546	-2175.347
8.548	1807.653
8.550	1683.653
8.552	1402.653
8.554	1145.653
8.556	282.653
8.558	-1488.347
8.560	-948.347
8.562	2409.653
8.564	36.653
8.566	-2868.347
8.568	-4409.347
8.570	-5047.347
8.572	-6708.347
8.574	-7253.347
8.576	-7488.347
8.578	-8268.347
8.580	-8475.347
8.582	-6978.347
8.584	-4295.347
8.586	-3327.347
8.588	-2398.347
8.590	-1391.347
8.592	126.653
8.594	286.653
8.596	1613.653
8.598	3762.653
8.600	1628.653
8.602	412.653
8.604	-1660.347
8.606	-4348.347
8.608	-6814.347
8.610	-8465.347
8.612	-9726.347
8.614	-9911.347
8.616	-7817.347
8.618	-7792.347
8.620	-9078.347
8.622	-9998.347
8.624	-7358.347
8.626	-3568.347
8.628	-126.347
8.630	283.653
8.632	2072.653
8.634	4624.653
8.636	5932.653
8.638	4768.653
8.640	3659.653
8.642	3542.653
8.644	767.653
8.646	-2636.347
8.648	-5055.347
8.650	-5987.347
8.652	-8332.347
8.654	-9784.347
8.656	-10707.347
8.658	-11239.347
8.660	-9392.347
8.662	-7198.347
8.664	-2460.347
8.666	-163.347
8.668	478.653
8.670	3120.653
8.672	4669.653
8.674	4556.653
8.676	2374.653
8.678	474.653
8.680	1981.653
8.682	3249.653
8.684	1415.653
8.686	-1512.347
8.688	-3690.347
8.690	-4612.347
8.692	-8090.347
8.694	-9607.347
8.696	-7036.347
8.698	-6410.347
8.700	-7075.347
8.702	-5801.347
8.704	-2012.347
8.706	799.653
8.708	2227.653
8.710	2374.653
8.712	2376.653
8.714	1723.653
8.716	1609.653
8.718	819.653
8.720	1250.653
8.722	33.653
8.724	-1973.347
8.726	-4112.347
8.728	-5632.347
8.730	-6374.347
8.732	-7715.347
8.734	-7391.347
8.736	-6624.347
8.738	-6863.347
8.740	-7098.347
8.742	-6558.347
8.744	-4213.347
8.746	-1557.347
8.748	1574.653
8.750	2628.653
8.752	2502.653
8.754	2396.653
8.756	2041.653
8.758	917.653
8.760	2406.653
8.762	308.653
8.764	-3987.347
8.766	-5543.347
8.768	-6702.347
8.770	-6845.347
8.772	-6343.347
8.774	-7292.347
8.776	-8509.347
8.778	-9039.347
8.780	-7345.347
8.782	-3394.347
8.784	-473.347
8.786	589.653
8.788	1097.653
8.790	2627.653
8.792	4210.653
8.794	3615.653
8.796	848.653
8.798	411.653
8.800	2697.653
8.802	3301.653
8.804	-572.347
8.806	-3569.347
8.808	-4937.347
8.810	-5706.347
8.812	-5339.347
8.814	-6183.347
8.816	-9122.347
8.818	-8951.347
8.820	-4411.347
8.822	-1255.347
8.824	1384.653
8.826	2911.653
8.828	4756.653
8.830	6834.653
8.832	6234.653
8.834	5859.653
8.836	4496.653
8.838	2799.653
8.840	1587.653
8.842	1328.653
8.844	105.653
8.846	-1696.347
8.848	-5418.347
8.850	-8874.347
8.852	-8873.347
8.854	-6157.347
8.856	-3204.347
8.858	-1303.347
8.860	-2140.347
8.862	-1115.347
8.864	902.653
8.866	2162.653
8.868	2947.653
8.870	2752.653
8.872	2153.653
8.874	3654.653
8.876	4610.653
8.878	3969.653
8.880	2865.653
8.882	1099.653
8.884	-958.347
8.886	-2162.347
8.888	-4929.347
8.890	-7467.347
8.892	-6252.347
8.894	-6265.347
8.896	-7328.347
8.898	-8358.347
8.900	-6560.347
8.902	-1875.347
8.904	456.653
8.906	-1314.347
8.908	337.653
8.910	2924.653
8.912	3572.653
8.914	2421.653
8.916	958.653
8.918	2426.653
8.920	1171.653
8.922	-1375.347
8.924	-4188.347
8.926	-5278.347
8.928	-4904.347
8.930	-6353.347
8.932	-9113.347
8.934	-9195.347
8.936	-10218.347
8.938	-8770.347
8.940	-6868.347
8.942	-6340.347
8.944	-3972.347
8.946	-2931.347
8.948	316.653
8.950	2429.653
8.952	1987.653
8.954	-553.347
8.956	-1555.347
8.958	264.653
8.960	924.653
8.962	-368.347
8.964	-1887.347
8.966	-2901.347
8.968	-5440.347
8.970	-7609.347
8.972	-9122.347
8.974	-9884.347
8.976	-7240.347
8.978	-5468.347
8.980	-5050.347
8.982	-3503.347
8.984	-2903.347
8.986	-2328.347
8.988	1690.653
8.990	2879.653
8.992	926.653
8.994	-784.347
8.996	-43.347
8.998	676.653
9.000	801.653
9.002	656.653
9.004	-1060.347
9.006	-4548.347
9.008	-6380.347
9.010	-5820.347
9.012	-5398.347
9.014	-7685.347
9.016	-9350.347
9.018	-8345.347
9.020	-5361.347
9.022	-1345.347
9.024	2379.653
9.026	7041.653
9.028	10298.653
9.030	10677.653
9.032	12749.653
9.034	17054.653
9.036	20636.653
9.038	20422.653
9.040	23397.653
9.042	27876.653
9.044	30524.653
9.046	29437.653
9.048	28152.653
9.050	28942.653
9.052	29841.653
9.054	32011.653
9.056	34952.653
9.058	35745.653
9.060	34349.653
9.062	32225.653
9.064	30043.653
9.066	29257.653
9.068	28393.653
9.070	26119.653
9.072	22364.653
9.074	16076.653
9.076	10557.653
9.078	8167.653
9.080	5503.653
9.082	3775.653
9.084	1416.653
9.086	1066.653
9.088	-457.347
9.090	-4965.347
9.092	-7957.347
9.094	-9127.347
9.096	-10677.347
9.098	-9345.347
9.100	-4982.347
9.102	-4265.347
9.104	-3084.347
9.106	-698.347
9.108	-547.347
9.110	-1518.347
9.112	-1806.347
9.114	-2267.347
9.116	512.653
9.118	777.653
9.120	-1193.347
9.122	-3388.347
9.124	-5242.347
9.126	-6712.347
9.128	-8050.347
9.130	-9698.347
9.132	-11525.347
9.134	-12079.347
9.136	-10174.347
9.138	-7829.347
9.140	-5628.347
9.142	-3468.347
9.144	-2408.347
9.146	-139.347
9.148	1929.653
9.150	1804.653
9.152	11.653
9.154	-2715.347
9.156	689.653
9.158	4497.653
9.160	5738.653
9.162	2438.653
9.164	-3223.347
9.166	-6979.347
9.168	-5896.347
9.170	-4715.347
9.172	-5421.347
9.174	-5376.347
9.176	-5885.347
9.178	-6851.347
9.180	-4923.347
9.182	-2672.347
9.184	-1873.347
9.186	-337.347
9.188	1384.653
9.190	1716.653
9.192	432.653
9.194	1201.653
9.196	5163.653
9.198	6532.653
9.200	5077.653
9.202	469.653
9.204	-3548.347
9.206	-4077.347
9.208	-5120.347
9.210	-8440.347
9.212	-9379.347
9.214	-6820.347
9.216	-5508.347
9.218	-6822.347
9.220	-6443.347
9.222	-2577.347
9.224	837.653
9.226	489.653
9.228	1640.653
9.230	3862.653
9.232	3677.653
9.234	1437.653
9.236	1065.653
9.238	1194.653
9.240	2927.653
9.242	4033.653
9.244	3352.653
9.246	-186.347
9.248	-3488.347
9.250	-4427.347
9.252	-6575.347
9.254	-7063.347
9.256	-6728.347
9.258	-6063.347
9.260	-5677.347
9.262	-2157.347
9.264	1541.653
9.266	4652.653
9.268	4474.653
9.270	3054.653
9.272	3827.653
9.274	5234.653
9.276	8092.653
9.278	7830.653
9.280	5271.653
9.282	3403.653
9.284	836.653
9.286	-1923.347
9.288	-2885.347
9.290	-5600.347
9.292	-5676.347
9.294	-3622.347
9.296	-3890.347
9.298	-3375.347
9.300	-2840.347
9.302	-1730.347
9.304	125.653
9.306	2004.653
9.308	2391.653
9.310	1958.653
9.312	5695.653
9.314	8822.653
9.316	7637.653
9.318	4755.653
9.320	3789.653
9.322	3013.653
9.324	1671.653
9.326	-42.347
9.328	-1536.347
9.330	-3133.347
9.332	-4657.347
9.334	-5190.347
9.336	-3553.347
9.338	-2348.347
9.340	-1537.347
9.342	2671.653
9.344	4559.653
9.346	4963.653
9.348	5279.653
9.350	6184.653
9.352	5307.653
9.354	8200.653
9.356	10823.653
9.358	9606.653
9.360	7012.653
9.362	3475.653
9.364	-517.347
9.366	-1265.347
9.368	1397.653
9.370	178.653
9.372	-1358.347
9.374	-1056.347
9.376	-932.347
9.378	431.653
9.380	440.653
9.382	-278.347
9.384	2576.653
9.386	6624.653
9.388	7731.653
9.390	7992.653
9.392	6082.653
9.394	7121.653
9.396	10111.653
9.398	10802.653
9.400	9526.653
9.402	8462.653
9.404	7725.653
9.406	5154.653
9.408	3361.653
9.410	2407.653
9.412	1117.653
9.414	768.653
9.416	104.653
9.418	230.653
9.420	1382.653
9.422	3321.653
9.424	6324.653
9.426	8542.653
9.428	10177.653
9.430	11611.653
9.432	12466.653
9.434	13865.653
9.436	14099.653
9.438	13086.653
9.440	13207.653
9.442	10532.653
9.444	7393.653
9.446	5720.653
9.448	4797.653
9.450	2672.653
9.452	809.653
9.454	4704.653
9.456	5836.653
9.458	4829.653
9.460	4336.653
9.462	6255.653
9.464	10803.653
9.466	13502.653
9.468	13797.653
9.470	13084.653
9.472	10464.653
9.474	12748.653
9.476	18424.653
9.478	17295.653
9.480	14260.653
9.482	12256.653
9.484	9388.653
9.486	6821.653
9.488	5996.653
9.490	5982.653
9.492	6781.653
9.494	8332.653
9.496	8746.653
9.498	7832.653
9.500	8514.653
9.502	11341.653
9.504	12033.653
9.506	12966.653
9.508	13829.653
9.510	13085.653
9.512	13207.653
9.514	14035.653
9.516	15546.653
9.518	15707.653
9.520	13049.653
9.522	10721.653
9.524	9249.653
9.526	9752.653
9.528	8274.653
9.530	4344.653
9.532	2802.653
9.534	-720.347
9.536	-4302.347
9.538	-219.347
9.540	8694.653
9.542	13311.653
9.544	11506.653
9.546	10547.653
9.548	9942.653
9.550	10687.653
9.552	13780.653
9.554	13037.653
9.556	9862.653
9.558	5924.653
9.560	3286.653
9.562	4415.653
9.564	6012.653
9.566	4822.653
9.568	3727.653
9.570	1969.653
9.572	-688.347
9.574	-1174.347
9.576	-7.347
9.578	1597.653
9.580	2334.653
9.582	2158.653
9.584	2934.653
9.586	5237.653
9.588	6021.653
9.590	6430.653
9.592	7458.653
9.594	7596.653
9.596	7181.653
9.598	5689.653
9.600	1421.653
9.602	-887.347
9.604	-472.347
9.606	-1325.347
9.608	-2241.347
9.610	-4779.347
9.612	-6275.347
9.614	-6632.347
9.616	-6658.347
9.618	-6122.347
9.620	-3981.347
9.622	-2973.347
9.624	-1037.347
9.626	1837.653
9.628	-645.347
9.630	494.653
9.632	5346.653
9.634	6271.653
9.636	5974.653
9.638	3129.653
9.640	1196.653
9.642	1815.653
9.644	135.653
9.646	-3409.347
9.648	-3870.347
9.650	-4166.347
9.652	-5948.347
9.654	-7002.347
9.656	-6275.347
9.658	-3338.347
9.660	-3532.347
9.662	-3232.347
9.664	-990.347
9.666	123.653
9.668	63.653
9.670	1422.653
9.672	2127.653
9.674	3007.653
9.676	1534.653
9.678	-648.347
9.680	-1439.347
9.682	361.653
9.684	-1610.347
9.686	-5912.347
9.688	-6928.347
9.690	-4801.347
9.692	-4119.347
9.694	-5428.347
9.696	-6957.347
9.698	-6027.347
9.700	-4282.347
9.702	-2610.347
9.704	-1566.347
9.706	-57.347
9.708	-912.347
9.710	-727.347
9.712	3755.653
9.714	5244.653
9.716	4160.653
9.718	1786.653
9.720	141.653
9.722	-818.347
9.724	-2389.347
9.726	-2063.347
9.728	-2121.347
9.730	-6360.347
9.732	-8108.347
9.734	-7730.347
9.736	-7839.347
9.738	-7188.347
9.740	-6913.347
9.742	-3029.347
9.744	-121.347
9.746	953.653
9.748	1546.653
9.750	4008.653
9.752	3725.653
9.754	3952.653
9.756	3066.653
9.758	1927.653
9.760	1644.653
9.762	-843.347
9.764	-3354.347
9.766	-3755.347
9.768	-6325.347
9.770	-7527.347
9.772	-7095.347
9.774	-7330.347
9.776	-7318.347
9.778	-6540.347
9.780	-4907.347
9.782	-4293.347
9.784	-3058.347
9.786	-1548.347
9.788	449.653
9.790	3006.653
9.792	3998.653
9.794	5400.653
9.796	4383.653
9.798	744.653
9.800	-800.347
9.802	-1269.347
9.804	-543.347
9.806	-1612.347
9.808	-4467.347
9.810	-7036.347
9.812	-7660.347
9.814	-7176.347
9.816	-6067.347
9.818	-6510.347
9.820	-6883.347
9.822	-5023.347
9.824	-1088.347
9.826	259.653
9.828	493.653
9.830	4197.653
9.832	5669.653
9.834	4382.653
9.836	3642.653
9.838	2331.653
9.840	1511.653
9.842	122.653
9.844	-2198.347
9.846	-6013.347
9.848	-6288.347
9.850	-6220.347
9.852	-7364.347
9.854	-8844.347
9.856	-7446.347
9.858	-4807.347
9.860	-2978.347
9.862	1596.653
9.864	2023.653
9.866	1355.653
9.868	3160.653
9.870	5604.653
9.872	4684.653
9.874	3699.653
9.876	3561.653
9.878	1984.653
9.880	461.653
9.882	-782.347
9.884	-1697.347
9.886	-3237.347
9.888	-5855.347
9.890	-9073.347
9.892	-8171.347
9.894	-4921.347
9.896	-3437.347
9.898	-3713.347
9.900	-2649.347
9.902	-1382.347
9.904	803.653
9.906	2629.653
9.908	3360.653
9.910	5677.653
9.912	8026.653
9.914	6903.653
9.916	4355.653
9.918	2287.653
9.920	1160.653
9.922	-170.347
9.924	-813.347
9.926	-3931.347
9.928	-6931.347
9.930	-8501.347
9.932	-7693.347
9.934	-6710.347
9.936	-5683.347
9.938	-5008.347
9.940	-2970.347
9.942	-1333.347
9.944	-1380.347
9.946	681.653
9.948	4647.653
9.950	4356.653
9.952	3690.653
9.954	3764.653
9.956	2586.653
9.958	2046.653
9.960	2922.653
9.962	1671.653
9.964	-1125.347
9.966	-4510.347
9.968	-5355.347
9.970	-5967.347
9.972	-6609.347
9.974	-6750.347
9.976	-6580.347
9.978	-5912.347
9.980	-3193.347
9.982	-1857.347
9.984	-1490.347
9.986	1786.653
9.988	5299.653
9.990	5929.653
9.992	4189.653
9.994	4170.653
9.996	6975.653
9.998	4406.653
10.000	481.653
10.002	-337.347
10.004	-790.347
10.006	-4087.347
10.008	-6882.347
10.010	-7460.347
10.012	-6538.347
10.014	-6520.347
10.016	-6627.347
10.018	-5955.347
10.020	-3962.347
10.022	562.653
10.024	2652.653
10.026	3284.653
10.028	6262.653
10.030	7808.653
10.032	7027.653
10.034	5609.653
10.036	4543.653
10.038	2714.653
10.040	1566.653
10.042	1529.653
10.044	1192.653
10.046	-2441.347
10.048	-2563.347
10.050	-1132.347
10.052	-812.347
10.054	-3129.347
10.056	-4854.347
10.058	-3374.347
10.060	800.653
10.062	4324.653
10.064	4000.653
10.066	4701.653
10.068	7340.653
10.070	6147.653
10.072	4169.653
10.074	6159.653
10.076	8594.653
10.078	5388.653
10.080	2219.653
10.082	1697.653
10.084	256.653
10.086	-3091.347
10.088	-2956.347
10.090	-1244.347
10.092	-1924.347
10.094	-3460.347
10.096	-2443.347
10.098	-175.347
10.100	669.653
10.102	574.653
10.104	1567.653
10.106	5111.653
10.108	9229.653
10.110	7938.653
10.112	3947.653
10.114	3654.653
10.116	5533.653
10.118	4600.653
10.120	2254.653
10.122	1856.653
10.124	-35.347
10.126	-2665.347
10.128	-4913.347
10.130	-7845.347
10.132	-9032.347
10.134	-7293.347
10.136	-5378.347
10.138	-3923.347
10.140	-3848.347
10.142	-2418.347
10.144	-1705.347
10.146	1824.653
10.148	5696.653
10.150	6614.653
10.152	5523.653
10.154	5159.653
10.156	5069.653
10.158	3822.653
10.160	1946.653
10.162	-1321.347
10.164	-4360.347
10.166	-5189.347
10.168	-7825.347
10.170	-9115.347
10.172	-7139.347
10.174	-5800.347
10.176	-5965.347
10.178	-5185.347
10.180	-4110.347
10.182	-4280.347
10.184	-1158.347
10.186	3927.653
10.188	5321.653
10.190	4404.653
10.192	4769.653
10.194	3910.653
10.196	2011.653
10.198	4939.653
10.200	5234.653
10.202	1158.653
10.204	-1567.347
10.206	-3784.347
10.208	-4620.347
10.210	-4763.347
10.212	-6207.347
10.214	-6987.347
10.216	-6363.347
10.218	-5725.347
10.220	-4597.347
10.222	-1585.347
10.224	1559.653
10.226	3953.653
10.228	4026.653
10.230	3215.653
10.232	4248.653
10.234	5171.653
10.236	4236.653
10.238	2518.653
10.240	564.653
10.242	-201.347
10.244	-553.347
10.246	-3067.347
10.248	-5503.347
10.250	-4838.347
10.252	-2838.347
10.254	-823.347
10.256	2307.653
10.258	5238.653
10.260	7971.653
10.262	9546.653
10.264	12765.653
10.266	18657.653
10.268	21917.653
10.270	22521.653
10.272	24251.653
10.274	27525.653
10.276	32867.653
10.278	36552.653
10.280	37246.653
10.282	37591.653
10.284	35583.653
10.286	35879.653
10.288	37132.653
10.290	36567.653
10.292	34435.653
10.294	31684.653
10.296	29207.653
10.298	25834.653
10.300	22852.653
10.302	20556.653
10.304	19473.653
10.306	17037.653
10.308	12486.653
10.310	10976.653
10.312	10646.653
10.314	10211.653
10.316	9996.653
10.318	7586.653
10.320	4701.653
10.322	186.653
10.324	-4396.347
10.326	-6459.347
10.328	-8397.347
10.330	-9024.347
10.332	-8991.347
10.334	-8817.347
10.336	-6307.347
10.338	-1725.347
10.340	-264.347
10.342	-3105.347
10.344	-3243.347
10.346	-230.347
10.348	1985.653
10.350	3002.653
10.352	2230.653
10.354	1634.653
10.356	-16.347
10.358	-1892.347
10.360	-3284.347
10.362	-4450.347
10.364	-2771.347
10.366	-3445.347
10.368	-6018.347
10.370	-4664.347
10.372	-5476.347
10.374	-7961.347
10.376	-6650.347
10.378	-3392.347
10.380	-1628.347
10.382	-1793.347
10.384	2199.653
10.386	4410.653
10.388	5781.653
10.390	5585.653
10.392	4678.653
10.394	4354.653
10.396	2586.653
10.398	1188.653
10.400	-223.347
10.402	-3323.347
10.404	-3701.347
10.406	-2450.347
10.408	-4283.347
10.410	-6149.347
10.412	-7385.347
10.414	-8418.347
10.416	-8067.347
10.418	-7224.347
10.420	-4398.347
10.422	1202.653
10.424	5829.653
10.426	7499.653
10.428	7409.653
10.430	8471.653
10.432	7585.653
10.434	7061.653
10.436	6564.653
10.438	4405.653
10.440	2128.653
10.442	269.653
10.444	-1855.347
10.446	-4429.347
10.448	-5565.347
10.450	-5279.347
10.452	-5053.347
10.454	-4409.347
10.456	-4520.347
10.458	-3855.347
10.460	-2817.347
10.462	-128.347
10.464	3016.653
10.466	5721.653
10.468	7705.653
10.470	8670.653
10.472	7122.653
10.474	5541.653
10.476	5043.653
10.478	5672.653
10.480	2994.653
10.482	-663.347
10.484	-1269.347
10.486	-2470.347
10.488	-5134.347
10.490	-5565.347
10.492	-4015.347
10.494	-2113.347
10.496	-309.347
10.498	-224.347
10.500	158.653
10.502	1676.653
10.504	5119.653
10.506	7702.653
10.508	7786.653
10.510	6274.653
10.512	6022.653
10.514	7415.653
10.516	6971.653
10.518	5392.653
10.520	1290.653
10.522	-1130.347
10.524	-618.347
10.526	-2815.347
10.528	-5694.347
10.530	-3697.347
10.532	-828.347
10.534	-1907.347
10.536	-2616.347
10.538	-1303.347
10.540	-30.347
10.542	800.653
10.544	4892.653
10.546	6606.653
10.548	8171.653
10.550	8947.653
10.552	6844.653
10.554	4352.653
10.556	3384.653
10.558	3067.653
10.560	6019.653
10.562	9063.653
10.564	5283.653
10.566	3067.653
10.568	1444.653
10.570	-995.347
10.572	-3002.347
10.574	-4107.347
10.576	-1894.347
10.578	1505.653
10.580	2733.653
10.582	6114.653
10.584	7402.653
10.586	9038.653
10.588	11134.653
10.590	11135.653
10.592	11907.653
10.594	11111.653
10.596	8877.653
10.598	6831.653
10.600	6191.653
10.602	3928.653
10.604	277.653
10.606	761.653
10.608	106.653
10.610	-1909.347
10.612	-788.347
10.614	158.653
10.616	2019.653
10.618	3521.653
10.620	5496.653
10.622	9028.653
10.624	9742.653
10.626	11572.653
10.628	12918.653
10.630	11819.653
10.632	12197.653
10.634	11966.653
10.636	9474.653
10.638	7276.653
10.640	7221.653
10.642	6549.653
10.644	3547.653
10.646	3649.653
10.648	4696.653
10.650	3693.653
10.652	4145.653
10.654	4321.653
10.656	5100.653
10.658	3377.653
10.660	1344.653
10.662	5663.653
10.664	11869.653
10.666	13771.653
10.668	15402.653
10.670	16518.653
10.672	17954.653
10.674	18301.653
10.676	15839.653
10.678	13485.653
10.680	11902.653
10.682	10924.653
10.684	12586.653
10.686	11983.653
10.688	7354.653
10.690	4434.653
10.692	4087.653
10.694	5009.653
10.696	7394.653
10.698	9087.653
10.700	9911.653
10.702	12307.653
10.704	14588.653
10.706	16148.653
10.708	17616.653
10.710	18256.653
10.712	18358.653
10.714	18869.653
10.716	18247.653
10.718	18107.653
10.720	16556.653
10.722	14648.653
10.724	12152.653
10.726	10063.653
10.728	8720.653
10.730	7944.653
10.732	7551.653
10.734	7672.653
10.736	7944.653
10.738	8571.653
10.740	10910.653
10.742	14461.653
10.744	16211.653
10.746	14946.653
10.748	15707.653
10.750	17214.653
10.752	18069.653
10.754	18312.653
10.756	16201.653
10.758	14723.653
10.760	13955.653
10.762	13890.653
10.764	9988.653
10.766	7296.653
10.768	8484.653
10.770	8378.653
10.772	6327.653
10.774	4668.653
10.776	6637.653
10.778	6145.653
10.780	7024.653
10.782	12426.653
10.784	15002.653
10.786	14212.653
10.788	12582.653
10.790	12261.653
10.792	13430.653
10.794	12710.653
10.796	10704.653
10.798	8739.653
10.800	7389.653
10.802	6366.653
10.804	4199.653
10.806	4962.653
10.808	4226.653
10.810	-206.347
10.812	-2610.347
10.814	-3312.347
10.816	-2550.347
10.818	590.653
10.820	6347.653
10.822	9081.653
10.824	9157.653
10.826	9815.653
10.828	10262.653
10.830	9854.653
10.832	8997.653
10.834	7312.653
10.836	5083.653
10.838	5587.653
10.840	4444.653
10.842	2341.653
10.844	924.653
10.846	340.653
10.848	-1249.347
10.850	-3207.347
10.852	-4318.347
10.854	-4378.347
10.856	-4947.347
10.858	-1772.347
10.860	3657.653
10.862	5829.653
10.864	7607.653
10.866	8654.653
10.868	7687.653
10.870	5577.653
10.872	5804.653
10.874	7029.653
10.876	5237.653
10.878	1961.653
10.880	-748.347
10.882	-1747.347
10.884	-837.347
10.886	-897.347
10.888	-2375.347
10.890	-4034.347
10.892	-6125.347
10.894	-7053.347
10.896	-3519.347
10.898	-834.347
10.900	-130.347
10.902	-1477.347
10.904	-75.347
10.906	4073.653
10.908	7569.653
10.910	9319.653
10.912	8956.653
10.914	8146.653
10.916	6282.653
10.918	4323.653
10.920	2212.653
10.922	-485.347
10.924	-1713.347
10.926	-1895.347
10.928	-4896.347
10.930	-5951.347
10.932	-5512.347
10.934	-5603.347
10.936	-5094.347
10.938	-3423.347
10.940	-1892.347
10.942	-2102.347
10.944	425.653
10.946	5204.653
10.948	6135.653
10.950	5694.653
10.952	8605.653
10.954	9323.653
10.956	5472.653
10.958	3643.653
10.960	3199.653
10.962	2336.653
10.964	-906.347
10.966	-2788.347
10.968	-5423.347
10.970	-7885.347
10.972	-6536.347
10.974	-3381.347
10.976	-3697.347
10.978	-3285.347
10.980	1907.653
10.982	3121.653
10.984	4431.653
10.986	5265.653
10.988	6309.653
10.990	7019.653
10.992	9286.653
10.994	8729.653
10.996	4564.653
10.998	1971.653
11.000	2472.653
11.002	1458.653
11.004	-960.347
11.006	-3435.347
11.008	-4665.347
11.010	-6683.347
11.012	-7218.347
11.014	-5015.347
11.016	-4348.347
11.018	-2587.347
11.020	-1071.347
11.022	952.653
11.024	3860.653
11.026	4347.653
11.028	4727.653
11.030	4394.653
11.032	5166.653
11.034	7131.653
11.036	4992.653
11.038	1108.653
11.040	-1070.347
11.042	-522.347
11.044	-845.347
11.046	-2098.347
11.048	-2762.347
11.050	-3772.347
11.052	-4450.347
11.054	-4406.347
11.056	-3968.347
11.058	-1115.347
11.060	2146.653
11.062	2943.653
11.064	4194.653
11.066	4992.653
11.068	6090.653
11.070	5837.653
11.072	7026.653
11.074	7039.653
11.076	6732.653
11.078	6441.653
11.080	4141.653
11.082	-295.347
11.084	-2955.347
11.086	-3339.347
11.088	-4039.347
11.090	-3222.347
11.092	-3665.347
11.094	-5238.347
11.096	-4912.347
11.098	-323.347
11.100	1120.653
11.102	2071.653
11.104	4312.653
11.106	5391.653
11.108	4657.653
11.110	4277.653
11.112	5706.653
11.114	7391.653
11.116	5258.653
11.118	2733.653
11.120	727.653
11.122	201.653
11.124	1495.653
11.126	-51.347
11.128	-2478.347
11.130	-3426.347
11.132	-2797.347
11.134	-1575.347
11.136	-1347.347
11.138	-388.347
11.140	-369.347
11.142	1267.653
11.144	4336.653
11.146	5445.653
11.148	6088.653
11.150	7421.653
11.152	8457.653
11.154	8996.653
11.156	6740.653
11.158	3601.653
11.160	1818.653
11.162	-661.347
11.164	-2758.347
11.166	-2785.347
11.168	-3303.347
11.170	-3302.347
11.172	-4220.347
11.174	-5907.347
11.176	-6899.347
11.178	-3902.347
11.180	256.653
11.182	4614.653
11.184	5982.653
11.186	4405.653
11.188	5725.653
11.190	8057.653
11.192	8106.653
11.194	6148.653
11.196	5479.653
11.198	5782.653
11.200	4427.653
11.202	287.653
11.204	-2667.347
11.206	-2510.347
11.208	-3747.347
11.210	-3138.347
11.212	-2487.347
11.214	-3003.347
11.216	1071.653
11.218	2362.653
11.220	2267.653
11.222	3095.653
11.224	4641.653
11.226	7050.653
11.228	5909.653
11.230	5362.653
11.232	7664.653
11.234	8725.653
11.236	8076.653
11.238	6903.653
11.240	4167.653
11.242	543.653
11.244	-1249.347
11.246	-2238.347
11.248	-1107.347
11.250	-213.347
11.252	-1251.347
11.254	-3087.347
11.256	-2113.347
11.258	177.653
11.260	3523.653
11.262	6880.653
11.264	7623.653
11.266	7093.653
11.268	6817.653
11.270	7684.653
11.272	9359.653
11.274	11641.653
11.276	13776.653
11.278	10274.653
11.280	6916.653
11.282	4526.653
11.284	2556.653
11.286	1726.653
11.288	112.653
11.290	-1152.347
11.292	-3745.347
11.294	-1698.347
11.296	3419.653
11.298	4939.653
11.300	5151.653
11.302	7875.653
11.304	9415.653
11.306	10504.653
11.308	10754.653
11.310	9826.653
11.312	8683.653
11.314	6861.653
11.316	6657.653
11.318	5498.653
11.320	3537.653
11.322	1312.653
11.324	-1272.347
11.326	-2605.347
11.328	-1718.347
11.330	-4336.347
11.332	-7257.347
11.334	-5325.347
11.336	-1676.347
11.338	157.653
11.340	2131.653
11.342	4618.653
11.344	7066.653
11.346	7651.653
11.348	8522.653
11.350	9082.653
11.352	6339.653
11.354	4288.653
11.356	4200.653
11.358	3332.653
11.360	929.653
11.362	-1697.347
11.364	-2527.347
11.366	-1677.347
11.368	-1826.347
11.370	-3997.347
11.372	-8082.347
11.374	-6423.347
11.376	-740.347
11.378	590.653
11.380	2218.653
11.382	4753.653
11.384	5022.653
11.386	7262.653
11.388	8784.653
11.390	8246.653
11.392	8045.653
11.394	6791.653
11.396	5661.653
11.398	3187.653
11.400	167.653
11.402	-1632.347
11.404	-2256.347
11.406	-3305.347
11.408	-4251.347
11.410	-4257.347
11.412	-6835.347
11.414	-6714.347
11.416	-2937.347
11.418	-170.347
11.420	2531.653
11.422	7501.653
11.424	9230.653
11.426	9087.653
11.428	8951.653
11.430	8247.653
11.432	7389.653
11.434	5879.653
11.436	1911.653
11.438	-377.347
11.440	1248.653
11.442	2174.653
11.444	2165.653
11.446	964.653
11.448	-910.347
11.450	-4437.347
11.452	-4254.347
11.454	-754.347
11.456	641.653
11.458	1981.653
11.460	5069.653
11.462	9132.653
11.464	11374.653
11.466	15789.653
11.468	21501.653
11.470	21564.653
11.472	21731.653
11.474	25094.653
11.476	26962.653
11.478	27637.653
11.480	28296.653
11.482	29859.653
11.484	31229.653
11.486	31387.653
11.488	31963.653
11.490	32716.653
11.492	36966.653
11.494	41726.653
11.496	42603.653
11.498	40691.653
11.500	38659.653
11.502	38109.653
11.504	36049.653
11.506	33754.653
11.508	29930.653
11.510	24301.653
11.512	18379.653
11.514	13301.653
11.516	10058.653
11.518	6724.653
11.520	3218.653
11.522	527.653
11.524	668.653
11.526	975.653
11.528	-1958.347
11.530	-5926.347
11.532	-7093.347
11.534	-2382.347
11.536	22.653
11.538	481.653
11.540	2242.653
11.542	3536.653
11.544	3027.653
11.546	4107.653
11.548	4519.653
11.550	4781.653
11.552	5566.653
11.554	3418.653
11.556	419.653
11.558	-1803.347
11.560	-4918.347
11.562	-8500.347
11.564	-8041.347
11.566	-3984.347
11.568	-1206.347
11.570	-4782.347
11.572	-7228.347
11.574	-4197.347
11.576	-2248.347
11.578	-2865.347
11.580	-1274.347
11.582	3502.653
11.584	6911.653
11.586	8002.653
11.588	6235.653
11.590	5809.653
11.592	7761.653
11.594	6739.653
11.596	6268.653
11.598	6157.653
11.600	2888.653
11.602	499.653
11.604	-881.347
11.606	-4788.347
11.608	-6158.347
11.610	-5909.347
11.612	-4140.347
11.614	-2206.347
11.616	1733.653
11.618	5805.653
11.620	7111.653
11.622	6981.653
11.624	6867.653
11.626	8281.653
11.628	9452.653
11.630	10047.653
11.632	9477.653
11.634	8643.653
11.636	7145.653
11.638	3681.653
11.640	2342.653
11.642	2164.653
11.644	494.653
11.646	-745.347
11.648	-1647.347
11.650	-2710.347
11.652	-1168.347
11.654	-775.347
11.656	-212.347
11.658	1578.653
11.660	3186.653
11.662	4936.653
11.664	5393.653
11.666	5317.653
11.668	6656.653
11.670	8942.653
11.672	9783.653
11.674	8996.653
11.676	7536.653
11.678	6282.653
11.680	3046.653
11.682	-517.347
11.684	-539.347
11.686	-432.347
11.688	-2228.347
11.690	-3139.347
11.692	-2958.347
11.694	-3285.347
11.696	-2215.347
11.698	3182.653
11.700	8364.653
11.702	10325.653
11.704	9674.653
11.706	7630.653
11.708	7887.653
11.710	8940.653
11.712	11787.653
11.714	11352.653
11.716	8922.653
11.718	8510.653
11.720	4291.653
11.722	2219.653
11.724	3497.653
11.726	263.653
11.728	-2794.347
11.730	-3292.347
11.732	-1328.347
11.734	331.653
11.736	2572.653
11.738	5586.653
11.740	6311.653
11.742	7359.653
11.744	8874.653
11.746	11829.653
11.748	12906.653
11.750	12287.653
11.752	10576.653
11.754	8471.653
11.756	6665.653
11.758	4121.653
11.760	3528.653
11.762	4489.653
11.764	3224.653
11.766	53.653
11.768	-4073.347
11.770	-5657.347
11.772	-1410.347
11.774	1731.653
11.776	2573.653
11.778	4375.653
11.780	8692.653
11.782	10922.653
11.784	12329.653
11.786	15242.653
11.788	14179.653
11.790	12703.653
11.792	11994.653
11.794	11465.653
11.796	10934.653
11.798	9206.653
11.800	7036.653
11.802	4649.653
11.804	4496.653
11.806	4021.653
11.808	1932.653
11.810	1771.653
11.812	4222.653
11.814	5482.653
11.816	5522.653
11.818	6391.653
11.820	8224.653
11.822	11455.653
11.824	13512.653
11.826	13648.653
11.828	14034.653
11.830	13820.653
11.832	13376.653
11.834	12592.653
11.836	12095.653
11.838	11138.653
11.840	8042.653
11.842	6272.653
11.844	6774.653
11.846	4376.653
11.848	2660.653
11.850	4867.653
11.852	5009.653
11.854	4469.653
11.856	5805.653
11.858	8120.653
11.860	11267.653
11.862	13935.653
11.864	16065.653
11.866	17042.653
11.868	17586.653
11.870	19456.653
11.872	19026.653
11.874	15576.653
11.876	12339.653
11.878	9957.653
11.880	8887.653
11.882	8367.653
11.884	11029.653
11.886	9871.653
11.888	4492.653
11.890	6524.653
11.892	10591.653
11.894	13562.653
11.896	14876.653
11.898	14299.653
11.900	15818.653
11.902	18496.653
11.904	18537.653
11.906	20261.653
11.908	20427.653
11.910	20521.653
11.912	20546.653
11.914	18549.653
11.916	16660.653
11.918	15675.653
11.920	15229.653
11.922	14231.653
11.924	13532.653
11.926	8220.653
11.928	4871.653
11.930	6390.653
11.932	7354.653
11.934	11057.653
11.936	14809.653
11.938	14534.653
11.940	15901.653
11.942	19306.653
11.944	20043.653
11.946	19662.653
11.948	19853.653
11.950	19346.653
11.952	18160.653
11.954	17892.653
11.956	17456.653
11.958	16622.653
11.960	13557.653
11.962	10397.653
11.964	10106.653
11.966	9165.653
11.968	8348.653
11.970	9319.653
11.972	10201.653
11.974	11396.653
11.976	11605.653
11.978	12273.653
11.980	13131.653
11.982	14341.653
11.984	15991.653
11.986	17592.653
11.988	17654.653
11.990	16997.653
11.992	16322.653
11.994	15197.653
11.996	11236.653
11.998	8287.653
12.000	6196.653
12.002	3843.653
12.004	2171.653
12.006	-2496.347
12.008	-2057.347
12.010	2898.653
12.012	6262.653
12.014	9116.653
12.016	8473.653
12.018	7457.653
12.020	8830.653
12.022	11385.653
12.024	11228.653
12.026	13657.653
12.028	13712.653
12.030	11060.653
12.032	9615.653
12.034	6953.653
12.036	6201.653
12.038	6177.653
12.040	5451.653
12.042	3854.653
12.044	659.653
12.046	-2908.347
12.048	-2987.347
12.050	-769.347
12.052	326.653
12.054	521.653
12.056	1696.653
12.058	3232.653
12.060	4507.653
12.062	5136.653
12.064	6647.653
12.066	9571.653
12.068	8287.653
12.070	7416.653
12.072	7287.653
12.074	7886.653
12.076	6394.653
12.078	3782.653
12.080	1567.653
12.082	-600.347
12.084	-1342.347
12.086	-1478.347
12.088	-1202.347
12.090	-2293.347
12.092	-1333.347
12.094	1381.653
12.096	1472.653
12.098	3116.653
12.100	4952.653
12.102	7111.653
12.104	8092.653
12.106	7912.653
12.108	6571.653
12.110	5983.653
12.112	6903.653
12.114	7226.653
12.116	4711.653
12.118	1681.653
12.120	1301.653
12.122	1099.653
12.124	-1445.347
12.126	-2800.347
12.128	-2103.347
12.130	-2902.347
12.132	-1853.347
12.134	-487.347
12.136	540.653
12.138	2702.653
12.140	4794.653
12.142	5590.653
12.144	5349.653
12.146	6981.653
12.148	7934.653
12.150	7851.653
12.152	6551.653
12.154	4936.653
12.156	4822.653
12.158	2406.653
12.160	-1223.347
12.162	-475.347
12.164	-1470.347
12.166	-4434.347
12.168	-4558.347
12.170	-3887.347
12.172	-2827.347
12.174	514.653
12.176	96.653
12.178	-1248.347
12.180	4337.653
12.182	7581.653
12.184	5992.653
12.186	5931.653
12.188	7709.653
12.190	9467.653
12.192	10484.653
12.194	9042.653
12.196	5306.653
12.198	1391.653
12.200	-72.347
12.202	-540.347
12.204	-2826.347
12.206	-4203.347
12.208	-2482.347
12.210	-1506.347
12.212	-208.347
12.214	405.653
12.216	991.653
12.218	2734.653
12.220	3292.653
12.222	4067.653
12.224	6838.653
12.226	9437.653
12.228	9464.653
12.230	8331.653
12.232	7456.653
12.234	6389.653
12.236	5300.653
12.238	3344.653
12.240	179.653
12.242	-2167.347
12.244	-5873.347
12.246	-5618.347
12.248	-412.347
12.250	1024.653
12.252	-88.347
12.254	-1513.347
12.256	-2333.347
12.258	775.653
12.260	3780.653
12.262	6221.653
12.264	6282.653
12.266	6608.653
12.268	6691.653
12.270	6068.653
12.272	5358.653
12.274	4804.653
12.276	3887.653
12.278	1948.653
12.280	1654.653
12.282	-117.347
12.284	-1872.347
12.286	-535.347
12.288	-1124.347
12.290	67.653
12.292	4.653
12.294	1648.653
12.296	1847.653
12.298	1278.653
12.300	3908.653
12.302	6466.653
12.304	7522.653
12.306	8562.653
12.308	8722.653
12.310	9015.653
12.312	9467.653
12.314	9461.653
12.316	7647.653
12.318	4853.653
12.320	3147.653
12.322	262.653
12.324	-1802.347
12.326	-1443.347
12.328	-1644.347
12.330	-2784.347
12.332	-1860.347
12.334	-489.347
12.336	-740.347
12.338	939.653
12.340	4650.653
12.342	7084.653
12.344	7449.653
12.346	8013.653
12.348	8705.653
12.350	8401.653
12.352	8813.653
12.354	7773.653
12.356	6272.653
12.358	4107.653
12.360	2469.653
12.362	-375.347
12.364	-1453.347
12.366	740.653
12.368	911.653
12.370	-25.347
12.372	-1060.347
12.374	-1695.347
12.376	-1495.347
12.378	14.653
12.380	3665.653
12.382	5787.653
12.384	6116.653
12.386	8712.653
12.388	10117.653
12.390	10112.653
12.392	9529.653
12.394	7587.653
12.396	7442.653
12.398	6789.653
12.400	3691.653
12.402	-1426.347
12.404	-4262.347
12.406	-3498.347
12.408	-3285.347
12.410	-1836.347
12.412	939.653
12.414	991.653
12.416	2879.653
12.418	4859.653
12.420	6340.653
12.422	7417.653
12.424	8991.653
12.426	10520.653
12.428	10865.653
12.430	9454.653
12.432	7529.653
12.434	7585.653
12.436	7750.653
12.438	6159.653
12.440	3577.653
12.442	1267.653
12.444	15.653
12.446	597.653
12.448	1504.653
12.450	1830.653
12.452	1457.653
12.454	2239.653
12.456	4477.653
12.458	5994.653
12.460	7981.653
12.462	9057.653
12.464	8854.653
12.466	9240.653
12.468	10476.653
12.470	11800.653
12.472	10949.653
12.474	8419.653
12.476	7491.653
12.478	6459.653
12.480	3954.653
12.482	1479.653
12.484	5281.653
12.486	4746.653
12.488	2481.653
12.490	2107.653
12.492	2521.653
12.494	2997.653
12.496	2073.653
12.498	1154.653
12.500	3616.653
12.502	7941.653
12.504	12020.653
12.506	13026.653
12.508	12836.653
12.510	11723.653
12.512	10131.653
12.514	8111.653
12.516	6416.653
12.518	4454.653
12.520	1723.653
12.522	-31.347
12.524	1401.653
12.526	1602.653
12.528	1389.653
12.530	981.653
12.532	-339.347
12.534	-1138.347
12.536	471.653
12.538	2269.653
12.540	4658.653
12.542	8449.653
12.544	9805.653
12.546	8738.653
12.548	6458.653
12.550	5829.653
12.552	5217.653
12.554	5402.653
12.556	7515.653
12.558	6863.653
12.560	1191.653
12.562	-4502.347
12.564	-5560.347
12.566	-2892.347
12.568	-2092.347
12.570	-2512.347
12.572	-1403.347
12.574	1898.653
12.576	4637.653
12.578	6225.653
12.580	7118.653
12.582	6901.653
12.584	7922.653
12.586	9166.653
12.588	8477.653
12.590	8756.653
12.592	8552.653
12.594	5079.653
12.596	3233.653
12.598	3995.653
12.600	1437.653
12.602	-2179.347
12.604	-2008.347
12.606	-1510.347
12.608	-1581.347
12.610	-1932.347
12.612	-1405.347
12.614	-1388.347
12.616	1827.653
12.618	5149.653
12.620	4880.653
12.622	7517.653
12.624	9631.653
12.626	9392.653
12.628	9624.653
12.630	8427.653
12.632	5202.653
12.634	3151.653
12.636	2149.653
12.638	4218.653
12.640	4124.653
12.642	962.653
12.644	497.653
12.646	494.653
12.648	-1237.347
12.650	-1320.347
12.652	819.653
12.654	2104.653
12.656	3445.653
12.658	5437.653
12.660	9987.653
12.662	15856.653
12.664	20644.653
12.666	22745.653
12.668	23435.653
12.670	25056.653
12.672	25639.653
12.674	25454.653
12.676	26097.653
12.678	27465.653
12.680	29171.653
12.682	31797.653
12.684	30534.653
12.686	31174.653
12.688	34971.653
12.690	37280.653
12.692	39049.653
12.694	39821.653
12.696	39457.653
12.698	38030.653
12.700	36608.653
12.702	35821.653
12.704	34629.653
12.706	32082.653
12.708	27511.653
12.710	21659.653
12.712	14991.653
12.714	9183.653
12.716	8151.653
12.718	5897.653
12.720	2059.653
12.722	2529.653
12.724	686.653
12.726	-1463.347
12.728	-1972.347
12.730	-655.347
12.732	251.653
12.734	-792.347
12.736	-653.347
12.738	2814.653
12.740	5487.653
12.742	4817.653
12.744	3727.653
12.746	3598.653
12.748	6871.653
12.750	9144.653
12.752	7016.653
12.754	3120.653
12.756	1745.653
12.758	-3270.347
12.760	-7980.347
12.762	-4444.347
12.764	-3505.347
12.766	-4553.347
12.768	-3418.347
12.770	-1772.347
12.772	-163.347
12.774	1704.653
12.776	1354.653
12.778	1156.653
12.780	5256.653
12.782	7853.653
12.784	9666.653
12.786	9772.653
12.788	8364.653
12.790	7851.653
12.792	7973.653
12.794	4982.653
12.796	2059.653
12.798	209.653
12.800	-782.347
12.802	32.653
12.804	-3938.347
12.806	-2462.347
12.808	749.653
12.810	907.653
12.812	209.653
12.814	1132.653
12.816	2373.653
12.818	4899.653
12.820	7095.653
12.822	8972.653
12.824	11405.653
12.826	11101.653
12.828	10008.653
12.830	8813.653
12.832	6902.653
12.834	6575.653
12.836	4939.653
12.838	1725.653
12.840	-328.347
12.842	249.653
12.844	9.653
12.846	-2097.347
12.848	-3997.347
12.850	-3871.347
12.852	586.653
12.854	2259.653
12.856	3048.653
12.858	5789.653
12.860	5976.653
12.862	8084.653
12.864	12014.653
12.866	11845.653
12.868	10586.653
12.870	7551.653
12.872	4947.653
12.874	6554.653
12.876	4628.653
12.878	1506.653
12.880	627.653
12.882	2441.653
12.884	2734.653
12.886	1611.653
12.888	1321.653
12.890	1454.653
12.892	2540.653
12.894	4614.653
12.896	6820.653
12.898	6624.653
12.900	7892.653
12.902	10105.653
12.904	12043.653
12.906	12128.653
12.908	11189.653
12.910	9900.653
12.912	7735.653
12.914	6527.653
12.916	5739.653
12.918	3861.653
12.920	3868.653
12.922	2977.653
12.924	2144.653
12.926	973.653
12.928	47.653
12.930	-73.347
12.932	591.653
12.934	3407.653
12.936	5580.653
12.938	6546.653
12.940	8564.653
12.942	10416.653
12.944	10245.653
12.946	10754.653
12.948	11481.653
12.950	10313.653
12.952	9311.653
12.954	8121.653
12.956	3902.653
12.958	802.653
12.960	973.653
12.962	3330.653
12.964	5152.653
12.966	3893.653
12.968	1266.653
12.970	1382.653
12.972	2016.653
12.974	1727.653
12.976	3017.653
12.978	5986.653
12.980	9579.653
12.982	14102.653
12.984	15992.653
12.986	14713.653
12.988	13631.653
12.990	12721.653
12.992	11114.653
12.994	8452.653
12.996	6818.653
12.998	5689.653
13.000	4717.653
13.002	6034.653
13.004	6322.653
13.006	3851.653
13.008	3876.653
13.010	3696.653
13.012	4862.653
13.014	5156.653
13.016	5434.653
13.018	8969.653
13.020	12074.653
13.022	13368.653
13.024	13459.653
13.026	10614.653
13.028	9840.653
13.030	12883.653
13.032	15029.653
13.034	15104.653
13.036	11741.653
13.038	8646.653
13.040	7889.653
13.042	6146.653
13.044	4568.653
13.046	3394.653
13.048	4572.653
13.050	9150.653
13.052	10739.653
13.054	9650.653
13.056	11243.653
13.058	12579.653
13.060	13581.653
13.062	15574.653
13.064	16764.653
13.066	17916.653
13.068	19004.653
13.070	17106.653
13.072	15425.653
13.074	15916.653
13.076	14354.653
13.078	12812.653
13.080	12572.653
13.082	11594.653
13.084	10664.653
13.086	9601.653
13.088	8398.653
13.090	6672.653
13.092	7727.653
13.094	8657.653
13.096	9609.653
13.098	12541.653
13.100	16924.653
13.102	19478.653
13.104	20722.653
13.106	19326.653
13.108	18467.653
13.110	17666.653
13.112	15116.653
13.114	13574.653
13.116	13267.653
13.118	16616.653
13.120	16069.653
13.122	13620.653
13.124	11242.653
13.126	9548.653
13.128	9347.653
13.130	9680.653
13.132	11293.653
13.134	13083.653
13.136	13666.653
13.138	15587.653
13.140	18166.653
13.142	17776.653
13.144	19525.653
13.146	19791.653
13.148	19671.653
13.150	20474.653
13.152	19419.653
13.154	18062.653
13.156	16827.653
13.158	15470.653
13.160	12037.653
13.162	10744.653
13.164	10199.653
13.166	9824.653
13.168	8780.653
13.170	8417.653
13.172	8352.653
13.174	8772.653
13.176	12258.653
13.178	14110.653
13.180	14661.653
13.182	13981.653
13.184	14654.653
13.186	18324.653
13.188	17776.653
13.190	13861.653
13.192	12353.653
13.194	10197.653
13.196	9744.653
13.198	11084.653
13.200	7356.653
13.202	4700.653
13.204	4330.653
13.206	3295.653
13.208	1832.653
13.210	2187.653
13.212	3553.653
13.214	4308.653
13.216	7596.653
13.218	10576.653
13.220	11279.653
13.222	10998.653
13.224	10120.653
13.226	8687.653
13.228	8888.653
13.230	12424.653
13.232	12702.653
13.234	8136.653
13.236	5345.653
13.238	6995.653
13.240	5634.653
13.242	3088.653
13.244	-118.347
13.246	-1139.347
13.248	-1508.347
13.250	1766.653
13.252	3934.653
13.254	4144.653
13.256	1986.653
13.258	3571.653
13.260	7991.653
13.262	6243.653
13.264	6627.653
13.266	9251.653
13.268	10135.653
13.270	9471.653
13.272	9505.653
13.274	7427.653
13.276	3992.653
13.278	4420.653
13.280	3173.653
13.282	940.653
13.284	-653.347
13.286	-941.347
13.288	-1727.347
13.290	-2797.347
13.292	-475.347
13.294	1438.653
13.296	3457.653
13.298	6111.653
13.300	6690.653
13.302	7761.653
13.304	9779.653
13.306	9889.653
13.308	8738.653
13.310	6444.653
13.312	3497.653
13.314	1462.653
13.316	3876.653
13.318	4416.653
13.320	1432.653
13.322	-654.347
13.324	-2510.347
13.326	-2535.347
13.328	-1747.347
13.330	-2351.347
13.332	-3828.347
13.334	-1612.347
13.336	2445.653
13.338	5718.653
13.340	6731.653
13.342	6281.653
13.344	5214.653
13.346	7671.653
13.348	8418.653
13.350	7512.653
13.352	4030.653
13.354	1691.653
13.356	5284.653
13.358	5514.653
13.360	1965.653
13.362	-370.347
13.364	-1100.347
13.366	-1523.347
13.368	-3005.347
13.370	-2663.347
13.372	345.653
13.374	1229.653
13.376	1806.653
13.378	4851.653
13.380	7472.653
13.382	6690.653
13.384	6427.653
13.386	8373.653
13.388	10021.653
13.390	9279.653
13.392	5436.653
13.394	2518.653
13.396	2056.653
13.398	1094.653
13.400	-48.347
13.402	-2563.347
13.404	-5717.347
13.406	-5788.347
13.408	-4602.347
13.410	-1837.347
13.412	655.653
13.414	-247.347
13.416	-98.347
13.418	3239.653
13.420	5966.653
13.422	6812.653
13.424	7622.653
13.426	8771.653
13.428	9436.653
13.430	9424.653
13.432	7571.653
13.434	5679.653
13.436	6016.653
13.438	3810.653
13.440	557.653
13.442	-818.347
13.444	-2260.347
13.446	-2972.347
13.448	-3258.347
13.450	-2994.347
13.452	-1596.347
13.454	2481.653
13.456	5455.653
13.458	6168.653
13.460	7801.653
13.462	8291.653
13.464	9385.653
13.466	8390.653
13.468	8687.653
13.470	6999.653
13.472	3815.653
13.474	3428.653
13.476	4136.653
13.478	2575.653
13.480	1889.653
13.482	419.653
13.484	-1038.347
13.486	-1942.347
13.488	-2347.347
13.490	-124.347
13.492	-550.347
13.494	-2613.347
13.496	-1257.347
13.498	4773.653
13.500	9556.653
13.502	10769.653
13.504	12659.653
13.506	13264.653
13.508	11787.653
13.510	9702.653
13.512	5529.653
13.514	3032.653
13.516	4166.653
13.518	4443.653
13.520	2591.653
13.522	-704.347
13.524	-1517.347
13.526	-110.347
13.528	-813.347
13.530	-485.347
13.532	1704.653
13.534	1973.653
13.536	2336.653
13.538	4848.653
13.540	6639.653
13.542	8031.653
13.544	7824.653
13.546	7740.653
13.548	9381.653
13.550	8254.653
13.552	3431.653
13.554	2978.653
13.556	741.653
13.558	2611.653
13.560	5583.653
13.562	3327.653
13.564	598.653
13.566	441.653
13.568	1500.653
13.570	1631.653
13.572	1691.653
13.574	2857.653
13.576	4037.653
13.578	5507.653
13.580	7917.653
13.582	9622.653
13.584	9512.653
13.586	9864.653
13.588	8270.653
13.590	5197.653
13.592	5972.653
13.594	9357.653
13.596	8947.653
13.598	4472.653
13.600	2554.653
13.602	605.653
13.604	-1332.347
13.606	-71.347
13.608	-11.347
13.610	184.653
13.612	1737.653
13.614	3771.653
13.616	4598.653
13.618	5566.653
13.620	7044.653
13.622	10548.653
13.624	12998.653
13.626	12608.653
13.628	12638.653
13.630	10228.653
13.632	7376.653
13.634	8221.653
13.636	8762.653
13.638	8180.653
13.640	5222.653
13.642	966.653
13.644	-55.347
13.646	394.653
13.648	3145.653
13.650	4020.653
13.652	5272.653
13.654	6037.653
13.656	5944.653
13.658	9213.653
13.660	11764.653
13.662	11744.653
13.664	12364.653
13.666	12239.653
13.668	11777.653
13.670	7901.653
13.672	6050.653
13.674	7579.653
13.676	7586.653
13.678	5297.653
13.680	2337.653
13.682	3457.653
13.684	3150.653
13.686	646.653
13.688	226.653
13.690	1537.653
13.692	2716.653
13.694	1790.653
13.696	4921.653
13.698	11369.653
13.700	13212.653
13.702	12649.653
13.704	11291.653
13.706	10899.653
13.708	11357.653
13.710	9764.653
13.712	7119.653
13.714	6722.653
13.716	5254.653
13.718	1987.653
13.720	795.653
13.722	-754.347
13.724	-960.347
13.726	-1105.347
13.728	-1835.347
13.730	-22.347
13.732	729.653
13.734	1621.653
13.736	3789.653
13.738	7198.653
13.740	8772.653
13.742	8846.653
13.744	10725.653
13.746	11791.653
13.748	9507.653
13.750	6634.653
13.752	9104.653
13.754	8559.653
13.756	5456.653
13.758	2339.653
13.760	1287.653
13.762	173.653
13.764	-2025.347
13.766	-2982.347
13.768	-288.347
13.770	-156.347
13.772	-1585.347
13.774	-512.347
13.776	600.653
13.778	2942.653
13.780	3260.653
13.782	5259.653
13.784	9654.653
13.786	11982.653
13.788	10974.653
13.790	10037.653
13.792	9604.653
13.794	6861.653
13.796	3349.653
13.798	1692.653
13.800	78.653
13.802	-1301.347
13.804	-1834.347
13.806	-210.347
13.808	-695.347
13.810	-2129.347
13.812	-210.347
13.814	2619.653
13.816	3667.653
13.818	5391.653
13.820	9105.653
13.822	11384.653
13.824	11307.653
13.826	9919.653
13.828	9319.653
13.830	7649.653
13.832	7979.653
13.834	6309.653
13.836	4875.653
13.838	7887.653
13.840	10313.653
13.842	8896.653
13.844	8691.653
13.846	10317.653
13.848	12063.653
13.850	13689.653
13.852	17447.653
13.854	21640.653
13.856	27293.653
13.858	34267.653
13.860	38003.653
13.862	41596.653
13.864	43732.653
13.866	44169.653
13.868	42970.653
13.870	44646.653
13.872	48771.653
13.874	47920.653
13.876	44668.653
13.878	39457.653
13.880	34992.653
13.882	29294.653
13.884	24567.653
13.886	20763.653
13.888	16468.653
13.890	12856.653
13.892	9841.653
13.894	7949.653
13.896	8319.653
13.898	11965.653
13.900	11964.653
13.902	11994.653
13.904	12337.653
13.906	11226.653
13.908	10959.653
13.910	9746.653
13.912	10724.653
13.914	7567.653
13.916	4154.653
13.918	2754.653
13.920	1979.653
13.922	-242.347
13.924	-3243.347
13.926	-3649.347
13.928	-3270.347
13.930	-3288.347
13.932	-2463.347
13.934	-1342.347
13.936	-712.347
13.938	2412.653
13.940	4248.653
13.942	5289.653
13.944	7684.653
13.946	8980.653
13.948	6826.653
13.950	6400.653
13.952	5014.653
13.954	2715.653
13.956	1109.653
13.958	1482.653
13.960	5123.653
13.962	3552.653
13.964	2177.653
13.966	1809.653
13.968	376.653
13.970	2361.653
13.972	3331.653
13.974	3341.653
13.976	5099.653
13.978	6606.653
13.980	7796.653
13.982	8458.653
13.984	8729.653
13.986	8913.653
13.988	9056.653
13.990	11483.653
13.992	10082.653
13.994	7088.653
13.996	3851.653
13.998	2159.653
14.000	1249.653
14.002	-1427.347
14.004	-1280.347
14.006	2022.653
14.008	2099.653
14.010	1077.653
14.012	1553.653
14.014	1987.653
14.016	3387.653
14.018	8502.653
14.020	8596.653
14.022	6811.653
14.024	9192.653
14.026	12902.653
14.028	14049.653
14.030	14082.653
14.032	11527.653
14.034	7128.653
14.036	4164.653
14.038	1552.653
14.040	1362.653
14.042	727.653
14.044	1592.653
14.046	3313.653
14.048	2375.653
14.050	1718.653
14.052	3391.653
14.054	4468.653
14.056	5985.653
14.058	8956.653
14.060	10006.653
14.062	11707.653
14.064	12949.653
14.066	10948.653
14.068	9924.653
14.070	11199.653
14.072	10338.653
14.074	7884.653
14.076	5929.653
14.078	4117.653
14.080	3243.653
14.082	2640.653
14.084	1029.653
14.086	449.653
14.088	196.653
14.090	1471.653
14.092	3042.653
14.094	4979.653
14.096	7691.653
14.098	9656.653
14.100	10568.653
14.102	12089.653
14.104	11772.653
14.106	9746.653
14.108	10118.653
14.110	11488.653
14.112	11891.653
14.114	11842.653
14.116	9456.653
14.118	4971.653
14.120	2016.653
14.122	2739.653
14.124	2699.653
14.126	1791.653
14.128	2395.653
14.130	3240.653
14.132	3369.653
14.134	3795.653
14.136	7752.653
14.138	14076.653
14.140	13236.653
14.142	13485.653
14.144	13272.653
14.146	11336.653
14.148	11404.653
14.150	12824.653
14.152	12629.653
