0.000	1298.718
0.002	8.718
0.004	-637.282
0.006	-2880.282
0.008	-5899.282
0.010	-7064.282
0.012	-7014.282
0.014	-7466.282
0.016	-9256.282
0.018	-9076.282
0.020	-6572.282
0.022	-5353.282
0.024	-4127.282
0.026	-3365.282
0.028	-1147.282
0.030	655.718
0.032	1044.718
0.034	1360.718
0.036	2231.718
0.038	2249.718
0.040	996.718
0.042	-268.282
0.044	-1703.282
0.046	-2407.282
0.048	-3200.282
0.050	-4226.282
0.052	-5173.282
0.054	-6301.282
0.056	-6686.282
0.058	-7475.282
0.060	-7856.282
0.062	-6268.282
0.064	-4858.282
0.066	-4215.282
0.068	-1197.282
0.070	411.718
0.072	1650.718
0.074	2922.718
0.076	3328.718
0.078	2478.718
0.080	128.718
0.082	-371.282
0.084	-530.282
0.086	-2187.282
0.088	-4061.282
0.090	-5626.282
0.092	-6861.282
0.094	-7803.282
0.096	-7907.282
0.098	-8131.282
0.100	-7291.282
0.102	-5288.282
0.104	-4575.282
0.106	-3267.282
0.108	628.718
0.110	1781.718
0.112	2005.718
0.114	1996.718
0.116	1455.718
0.118	447.718
0.120	-888.282
0.122	-1174.282
0.124	115.718
0.126	-1977.282
0.128	-4896.282
0.130	-5862.282
0.132	-7210.282
0.134	-8279.282
0.136	-7413.282
0.138	-6340.282
0.140	-5440.282
0.142	-4376.282
0.144	-3917.282
0.146	-2844.282
0.148	479.718
0.150	2288.718
0.152	2665.718
0.154	3384.718
0.156	3218.718
0.158	2578.718
0.160	1352.718
0.162	-202.282
0.164	-1671.282
0.166	-3318.282
0.168	-6256.282
0.170	-8531.282
0.172	-8615.282
0.174	-7832.282
0.176	-8116.282
0.178	-7918.282
0.180	-7384.282
0.182	-5636.282
0.184	-5018.282
0.186	-4095.282
0.188	-1395.282
0.190	-184.282
0.192	705.718
0.194	1380.718
0.196	1973.718
0.198	2556.718
0.200	1367.718
0.202	154.718
0.204	-1058.282
0.206	-2305.282
0.208	-3573.282
0.210	-5704.282
0.212	-6759.282
0.214	-7456.282
0.216	-7931.282
0.218	-7525.282
0.220	-5978.282
0.222	-5578.282
0.224	-5962.282
0.226	-4136.282
0.228	-1289.282
0.230	120.718
0.232	571.718
0.234	1628.718
0.236	858.718
0.238	626.718
0.240	650.718
0.242	271.718
0.244	-439.282
0.246	-1921.282
0.248	-5093.282
0.250	-7832.282
0.252	-8691.282
0.254	-8191.282
0.256	-7308.282
0.258	-6982.282
0.260	-5999.282
0.262	-6899.282
0.264	-6479.282
0.266	-2126.282
0.268	392.718
0.270	1031.718
0.272	1229.718
0.274	1565.718
0.276	2396.718
0.278	1706.718
0.280	-470.282
0.282	-1604.282
0.284	-2338.282
0.286	-2867.282
0.288	-4653.282
0.290	-6751.282
0.292	-7885.282
0.294	-8454.282
0.296	-8064.282
0.298	-7815.282
0.300	-7464.282
0.302	-7442.282
0.304	-5174.282
0.306	-1873.282
0.308	-1446.282
0.310	-420.282
0.312	1338.718
0.314	2410.718
0.316	1307.718
0.318	308.718
0.320	10.718
0.322	-1745.282
0.324	-3032.282
0.326	-3513.282
0.328	-3824.282
0.330	-5505.282
0.332	-8009.282
0.334	-8012.282
0.336	-7980.282
0.338	-7338.282
0.340	-5450.282
0.342	-5513.282
0.344	-4766.282
0.346	-714.282
0.348	2569.718
0.350	3315.718
0.352	3821.718
0.354	4041.718
0.356	3878.718
0.358	3798.718
0.360	3414.718
0.362	2516.718
0.364	1609.718
0.366	-554.282
0.368	-2743.282
0.370	-3841.282
0.372	-5114.282
0.374	-6369.282
0.376	-6864.282
0.378	-6474.282
0.380	-5113.282
0.382	-4092.282
0.384	-2545.282
0.386	72.718
0.388	1608.718
0.390	3237.718
0.392	5165.718
0.394	5113.718
0.396	5069.718
0.398	5010.718
0.400	3763.718
0.402	3284.718
0.404	1866.718
0.406	-369.282
0.408	-2877.282
0.410	-3954.282
0.412	-4343.282
0.414	-4336.282
0.416	-4575.282
0.418	-4765.282
0.420	-4046.282
0.422	-4091.282
0.424	-2384.282
0.426	599.718
0.428	1911.718
0.430	2630.718
0.432	3526.718
0.434	2846.718
0.436	1606.718
0.438	827.718
0.440	-172.282
0.442	-1717.282
0.444	-2881.282
0.446	-3726.282
0.448	-5114.282
0.450	-6148.282
0.452	-7001.282
0.454	-7528.282
0.456	-6742.282
0.458	-7054.282
0.460	-7298.282
0.462	-7788.282
0.464	-4498.282
0.466	-2229.282
0.468	-1679.282
0.470	-433.282
0.472	1626.718
0.474	2728.718
0.476	1412.718
0.478	746.718
0.480	522.718
0.482	55.718
0.484	-1743.282
0.486	-4026.282
0.488	-5849.282
0.490	-6629.282
0.492	-7313.282
0.494	-8826.282
0.496	-9624.282
0.498	-8622.282
0.500	-8008.282
0.502	-6783.282
0.504	-3497.282
0.506	-1168.282
0.508	599.718
0.510	901.718
0.512	981.718
0.514	1170.718
0.516	1245.718
0.518	665.718
0.520	-998.282
0.522	-2249.282
0.524	-2841.282
0.526	-4266.282
0.528	-6004.282
0.530	-6893.282
0.532	-8126.282
0.534	-9026.282
0.536	-9394.282
0.538	-10282.282
0.540	-11130.282
0.542	-8741.282
0.544	-5019.282
0.546	-3378.282
0.548	-2646.282
0.550	-559.282
0.552	2360.718
0.554	3261.718
0.556	3197.718
0.558	2202.718
0.560	395.718
0.562	-1635.282
0.564	-2198.282
0.566	-3030.282
0.568	-3319.282
0.570	-2076.282
0.572	-1262.282
0.574	-828.282
0.576	1923.718
0.578	4301.718
0.580	5553.718
0.582	9082.718
0.584	14526.718
0.586	19297.718
0.588	22686.718
0.590	24835.718
0.592	27933.718
0.594	31794.718
0.596	35506.718
0.598	38218.718
0.600	38259.718
0.602	39956.718
0.604	41660.718
0.606	42086.718
0.608	40291.718
0.610	37158.718
0.612	32953.718
0.614	27698.718
0.616	23476.718
0.618	20516.718
0.620	16936.718
0.622	13435.718
0.624	11866.718
0.626	10349.718
0.628	8519.718
0.630	7785.718
0.632	7245.718
0.634	6825.718
0.636	6313.718
0.638	5305.718
0.640	3240.718
0.642	1403.718
0.644	-1229.282
0.646	-4469.282
0.648	-7577.282
0.650	-9048.282
0.652	-9464.282
0.654	-9863.282
0.656	-10359.282
0.658	-11077.282
0.660	-12306.282
0.662	-9018.282
0.664	-6059.282
0.666	-4518.282
0.668	-2678.282
0.670	-1151.282
0.672	-182.282
0.674	195.718
0.676	-56.282
0.678	-1139.282
0.680	-1576.282
0.682	-2367.282
0.684	-4511.282
0.686	-6217.282
0.688	-6968.282
0.690	-7129.282
0.692	-7643.282
0.694	-7905.282
0.696	-7209.282
0.698	-7393.282
0.700	-7518.282
0.702	-4503.282
0.704	-2438.282
0.706	-1509.282
0.708	493.718
0.710	1605.718
0.712	2088.718
0.714	1938.718
0.716	1180.718
0.718	431.718
0.720	-1173.282
0.722	-2119.282
0.724	-3441.282
0.726	-5835.282
0.728	-7927.282
0.730	-8296.282
0.732	-8308.282
0.734	-7986.282
0.736	-7592.282
0.738	-8558.282
0.740	-7800.282
0.742	-4641.282
0.744	-2874.282
0.746	-1216.282
0.748	176.718
0.750	356.718
0.752	248.718
0.754	925.718
0.756	3090.718
0.758	3041.718
0.760	954.718
0.762	128.718
0.764	-948.282
0.766	-2429.282
0.768	-3760.282
0.770	-5286.282
0.772	-7519.282
0.774	-9269.282
0.776	-8341.282
0.778	-7128.282
0.780	-5513.282
0.782	-3067.282
0.784	-2273.282
0.786	-1471.282
0.788	1226.718
0.790	2446.718
0.792	3045.718
0.794	2335.718
0.796	2290.718
0.798	3266.718
0.800	2163.718
0.802	519.718
0.804	-1239.282
0.806	-2191.282
0.808	-3889.282
0.810	-5390.282
0.812	-6381.282
0.814	-6866.282
0.816	-6674.282
0.818	-6883.282
0.820	-5633.282
0.822	-3064.282
0.824	-1380.282
0.826	-232.282
0.828	1629.718
0.830	2906.718
0.832	3789.718
0.834	4091.718
0.836	3203.718
0.838	1918.718
0.840	648.718
0.842	326.718
0.844	-682.282
0.846	-2187.282
0.848	-3224.282
0.850	-5066.282
0.852	-7393.282
0.854	-7723.282
0.856	-6853.282
0.858	-6722.282
0.860	-5309.282
0.862	-2681.282
0.864	-763.282
0.866	1627.718
0.868	4610.718
0.870	5386.718
0.872	4933.718
0.874	5620.718
0.876	5856.718
0.878	5363.718
0.880	4505.718
0.882	2773.718
0.884	741.718
0.886	-880.282
0.888	-2046.282
0.890	-2272.282
0.892	-3776.282
0.894	-5756.282
0.896	-6844.282
0.898	-5857.282
0.900	-3344.282
0.902	-3629.282
0.904	-2295.282
0.906	757.718
0.908	3925.718
0.910	4948.718
0.912	5182.718
0.914	5505.718
0.916	6431.718
0.918	7503.718
0.920	6593.718
0.922	5151.718
0.924	3125.718
0.926	928.718
0.928	-4.282
0.930	-796.282
0.932	-1839.282
0.934	-2955.282
0.936	-4389.282
0.938	-3310.282
0.940	-156.282
0.942	1635.718
0.944	3209.718
0.946	4741.718
0.948	7012.718
0.950	8320.718
0.952	8225.718
0.954	8419.718
0.956	8793.718
0.958	7678.718
0.960	5813.718
0.962	4586.718
0.964	3958.718
0.966	3361.718
0.968	1158.718
0.970	124.718
0.972	590.718
0.974	911.718
0.976	-606.282
0.978	-104.282
0.980	2346.718
0.982	3326.718
0.984	5205.718
0.986	8303.718
0.988	11181.718
0.990	12132.718
0.992	12129.718
0.994	11620.718
0.996	12331.718
0.998	12544.718
1.000	11523.718
1.002	10567.718
1.004	9344.718
1.006	7333.718
1.008	5555.718
1.010	4443.718
1.012	2701.718
1.014	2903.718
1.016	3163.718
1.018	4024.718
1.020	6563.718
1.022	8135.718
1.024	8534.718
1.026	9609.718
1.028	11763.718
1.030	13277.718
1.032	13554.718
1.034	14786.718
1.036	16471.718
1.038	15663.718
1.040	13990.718
1.042	13850.718
1.044	11864.718
1.046	9966.718
1.048	8751.718
1.050	7723.718
1.052	6133.718
1.054	5163.718
1.056	4578.718
1.058	5886.718
1.060	8690.718
1.062	9476.718
1.064	11621.718
1.066	14327.718
1.068	15920.718
1.070	16621.718
1.072	16273.718
1.074	16462.718
1.076	16743.718
1.078	15176.718
1.080	12750.718
1.082	11756.718
1.084	10872.718
1.086	8731.718
1.088	6853.718
1.090	6212.718
1.092	5271.718
1.094	3821.718
1.096	3958.718
1.098	6468.718
1.100	7106.718
1.102	6337.718
1.104	7651.718
1.106	10268.718
1.108	11362.718
1.110	11379.718
1.112	12554.718
1.114	12558.718
1.116	10749.718
1.118	10158.718
1.120	9558.718
1.122	8991.718
1.124	7019.718
1.126	4130.718
1.128	1473.718
1.130	806.718
1.132	584.718
1.134	-1128.282
1.136	-1398.282
1.138	223.718
1.140	878.718
1.142	1981.718
1.144	4013.718
1.146	5191.718
1.148	5985.718
1.150	6116.718
1.152	6369.718
1.154	6082.718
1.156	5868.718
1.158	4828.718
1.160	2981.718
1.162	2018.718
1.164	1256.718
1.166	-1199.282
1.168	-3801.282
1.170	-4583.282
1.172	-5561.282
1.174	-6611.282
1.176	-6622.282
1.178	-4622.282
1.180	-3663.282
1.182	-3885.282
1.184	-2541.282
1.186	863.718
1.188	1960.718
1.190	2500.718
1.192	2912.718
1.194	1266.718
1.196	1366.718
1.198	1472.718
1.200	226.718
1.202	-1399.282
1.204	-2483.282
1.206	-2926.282
1.208	-4995.282
1.210	-6481.282
1.212	-7518.282
1.214	-9276.282
1.216	-8761.282
1.218	-6059.282
1.220	-4740.282
1.222	-4551.282
1.224	-3423.282
1.226	-1062.282
1.228	1148.718
1.230	1357.718
1.232	975.718
1.234	1348.718
1.236	1313.718
1.238	315.718
1.240	-112.282
1.242	-972.282
1.244	-2561.282
1.246	-4841.282
1.248	-7225.282
1.250	-7911.282
1.252	-8488.282
1.254	-9896.282
1.256	-9994.282
1.258	-7253.282
1.260	-5694.282
1.262	-4533.282
1.264	-2224.282
1.266	-578.282
1.268	68.718
1.270	1285.718
1.272	2370.718
1.274	1866.718
1.276	622.718
1.278	166.718
1.280	-626.282
1.282	-2265.282
1.284	-3425.282
1.286	-5044.282
1.288	-6114.282
1.290	-8068.282
1.292	-10568.282
1.294	-10019.282
1.296	-7038.282
1.298	-6241.282
1.300	-6504.282
1.302	-6770.282
1.304	-5086.282
1.306	-2588.282
1.308	217.718
1.310	1927.718
1.312	2588.718
1.314	3015.718
1.316	2309.718
1.318	974.718
1.320	-723.282
1.322	-2743.282
1.324	-4003.282
1.326	-4791.282
1.328	-6119.282
1.330	-7150.282
1.332	-8656.282
1.334	-8721.282
1.336	-6621.282
1.338	-6593.282
1.340	-6053.282
1.342	-4986.282
1.344	-4013.282
1.346	-2033.282
1.348	480.718
1.350	854.718
1.352	704.718
1.354	895.718
1.356	1320.718
1.358	728.718
1.360	-1164.282
1.362	-2113.282
1.364	-2983.282
1.366	-4546.282
1.368	-5800.282
1.370	-7102.282
1.372	-9009.282
1.374	-9638.282
1.376	-7679.282
1.378	-5987.282
1.380	-5756.282
1.382	-4798.282
1.384	-2464.282
1.386	-634.282
1.388	549.718
1.390	1385.718
1.392	1610.718
1.394	986.718
1.396	218.718
1.398	-1315.282
1.400	-2453.282
1.402	-2719.282
1.404	-2441.282
1.406	-3679.282
1.408	-5933.282
1.410	-7072.282
1.412	-8954.282
1.414	-9511.282
1.416	-8502.282
1.418	-6983.282
1.420	-5441.282
1.422	-4218.282
1.424	-3113.282
1.426	-590.282
1.428	1408.718
1.430	1803.718
1.432	2343.718
1.434	2886.718
1.436	2336.718
1.438	518.718
1.440	-1034.282
1.442	-1874.282
1.444	-2483.282
1.446	-4848.282
1.448	-6804.282
1.450	-7546.282
1.452	-9943.282
1.454	-10593.282
1.456	-8369.282
1.458	-7042.282
1.460	-4862.282
1.462	-3457.282
1.464	-2258.282
1.466	-1266.282
1.468	-438.282
1.470	1530.718
1.472	2965.718
1.474	2118.718
1.476	923.718
1.478	-788.282
1.480	-1594.282
1.482	-1934.282
1.484	-2703.282
1.486	-3997.282
1.488	-5208.282
1.490	-6971.282
1.492	-8179.282
1.494	-7608.282
1.496	-6613.282
1.498	-5912.282
1.500	-5609.282
1.502	-4720.282
1.504	-3373.282
1.506	-1403.282
1.508	461.718
1.510	329.718
1.512	923.718
1.514	1723.718
1.516	1406.718
1.518	-401.282
1.520	-2824.282
1.522	-2629.282
1.524	-2451.282
1.526	-4184.282
1.528	-4946.282
1.530	-6426.282
1.532	-9194.282
1.534	-7505.282
1.536	-6388.282
1.538	-5352.282
1.540	-5451.282
1.542	-5343.282
1.544	-3868.282
1.546	-730.282
1.548	1086.718
1.550	1343.718
1.552	1911.718
1.554	1840.718
1.556	2122.718
1.558	1622.718
1.560	-0.282
1.562	-1823.282
1.564	-3107.282
1.566	-4739.282
1.568	-5913.282
1.570	-7239.282
1.572	-8856.282
1.574	-8152.282
1.576	-7011.282
1.578	-5861.282
1.580	-6276.282
1.582	-6578.282
1.584	-5260.282
1.586	-2773.282
1.588	645.718
1.590	2662.718
1.592	1896.718
1.594	1693.718
1.596	2143.718
1.598	495.718
1.600	-978.282
1.602	-2238.282
1.604	-3897.282
1.606	-5348.282
1.608	-7038.282
1.610	-8851.282
1.612	-8307.282
1.614	-6911.282
1.616	-6953.282
1.618	-7380.282
1.620	-6552.282
1.622	-5006.282
1.624	-3086.282
1.626	-468.282
1.628	422.718
1.630	1503.718
1.632	2393.718
1.634	1870.718
1.636	823.718
1.638	-459.282
1.640	-801.282
1.642	-2221.282
1.644	-3665.282
1.646	-5374.282
1.648	-6744.282
1.650	-8113.282
1.652	-8369.282
1.654	-6665.282
1.656	-6153.282
1.658	-6204.282
1.660	-5476.282
1.662	-4279.282
1.664	-2184.282
1.666	86.718
1.668	821.718
1.670	1880.718
1.672	2980.718
1.674	3636.718
1.676	3098.718
1.678	1995.718
1.680	1376.718
1.682	916.718
1.684	186.718
1.686	-1757.282
1.688	-3553.282
1.690	-5735.282
1.692	-6828.282
1.694	-4983.282
1.696	-4309.282
1.698	-3657.282
1.700	-2419.282
1.702	-994.282
1.704	895.718
1.706	2262.718
1.708	3091.718
1.710	3684.718
1.712	4630.718
1.714	5425.718
1.716	5141.718
1.718	3361.718
1.720	1951.718
1.722	1005.718
1.724	-1693.282
1.726	-3926.282
1.728	-4872.282
1.730	-5263.282
1.732	-3526.282
1.734	-3663.282
1.736	-5069.282
1.738	-5033.282
1.740	-3442.282
1.742	-764.282
1.744	763.718
1.746	1493.718
1.748	2529.718
1.750	4000.718
1.752	4584.718
1.754	3612.718
1.756	2927.718
1.758	2553.718
1.760	1193.718
1.762	3.718
1.764	-1803.282
1.766	-4461.282
1.768	-7132.282
1.770	-8801.282
1.772	-8296.282
1.774	-8388.282
1.776	-8524.282
1.778	-7521.282
1.780	-6801.282
1.782	-5284.282
1.784	-3290.282
1.786	-1896.282
1.788	-1208.282
1.790	608.718
1.792	1622.718
1.794	1543.718
1.796	959.718
1.798	-64.282
1.800	-1202.282
1.802	-2051.282
1.804	-3968.282
1.806	-5806.282
1.808	-8863.282
1.810	-10822.282
1.812	-10043.282
1.814	-9491.282
1.816	-10181.282
1.818	-9275.282
1.820	-7348.282
1.822	-5515.282
1.824	-2003.282
1.826	16.718
1.828	769.718
1.830	1920.718
1.832	2478.718
1.834	1961.718
1.836	1066.718
1.838	-71.282
1.840	-1246.282
1.842	-2633.282
1.844	-4924.282
1.846	-6919.282
1.848	-8414.282
1.850	-8883.282
1.852	-8269.282
1.854	-9192.282
1.856	-8951.282
1.858	-6606.282
1.860	-6313.282
1.862	-6645.282
1.864	-5848.282
1.866	-3298.282
1.868	-1797.282
1.870	-448.282
1.872	1220.718
1.874	2918.718
1.876	3239.718
1.878	1091.718
1.880	-1536.282
1.882	-2827.282
1.884	-2921.282
1.886	-3316.282
1.888	-5747.282
1.890	-7548.282
1.892	-7254.282
1.894	-6529.282
1.896	-3818.282
1.898	1091.718
1.900	4877.718
1.902	8419.718
1.904	12955.718
1.906	17367.718
1.908	20879.718
1.910	22568.718
1.912	24621.718
1.914	27798.718
1.916	31090.718
1.918	33131.718
1.920	35128.718
1.922	37135.718
1.924	37420.718
1.926	36733.718
1.928	36098.718
1.930	37881.718
1.932	38728.718
1.934	36623.718
1.936	31930.718
1.938	28926.718
1.940	25995.718
1.942	22978.718
1.944	20338.718
1.946	16988.718
1.948	13510.718
1.950	10696.718
1.952	8193.718
1.954	7008.718
1.956	6202.718
1.958	5065.718
1.960	3665.718
1.962	1283.718
1.964	-2352.282
1.966	-5558.282
1.968	-7468.282
1.970	-7846.282
1.972	-9273.282
1.974	-9911.282
1.976	-9441.282
1.978	-8411.282
1.980	-7666.282
1.982	-7368.282
1.984	-6481.282
1.986	-3765.282
1.988	-2319.282
1.990	-2248.282
1.992	-2241.282
1.994	-2298.282
1.996	-1703.282
1.998	-3887.282
2.000	-5182.282
2.002	-4632.282
2.004	-5349.282
2.006	-8246.282
2.008	-9871.282
2.010	-10026.282
2.012	-9360.282
2.014	-8394.282
2.016	-9073.282
2.018	-7929.282
2.020	-5775.282
2.022	-4168.282
2.024	-2918.282
2.026	-124.282
2.028	1301.718
2.030	1294.718
2.032	584.718
2.034	149.718
2.036	1064.718
2.038	512.718
2.040	-719.282
2.042	-1559.282
2.044	-3289.282
2.046	-6582.282
2.048	-7635.282
2.050	-7735.282
2.052	-8658.282
2.054	-8366.282
2.056	-7896.282
2.058	-7424.282
2.060	-6631.282
2.062	-5031.282
2.064	-3719.282
2.066	-1823.282
2.068	476.718
2.070	1640.718
2.072	813.718
2.074	451.718
2.076	1078.718
2.078	896.718
2.080	28.718
2.082	-1843.282
2.084	-3632.282
2.086	-6242.282
2.088	-7477.282
2.090	-6996.282
2.092	-6586.282
2.094	-6047.282
2.096	-5130.282
2.098	-4003.282
2.100	-4058.282
2.102	-3229.282
2.104	-1909.282
2.106	753.718
2.108	1758.718
2.110	2645.718
2.112	3408.718
2.114	3028.718
2.116	2785.718
2.118	1478.718
2.120	684.718
2.122	-173.282
2.124	-2363.282
2.126	-5203.282
2.128	-3532.282
2.130	-4323.282
2.132	-6089.282
2.134	-5871.282
2.136	-5223.282
2.138	-4630.282
2.140	-3965.282
2.142	-2530.282
2.144	-294.282
2.146	1426.718
2.148	3045.718
2.150	3725.718
2.152	4274.718
2.154	4612.718
2.156	4051.718
2.158	3118.718
2.160	1825.718
2.162	-80.282
2.164	-3756.282
2.166	-6753.282
2.168	-5054.282
2.170	-5945.282
2.172	-5979.282
2.174	-5848.282
2.176	-5688.282
2.178	-4422.282
2.180	-2843.282
2.182	-433.282
2.184	972.718
2.186	2770.718
2.188	4986.718
2.190	5373.718
2.192	4929.718
2.194	4223.718
2.196	4059.718
2.198	2376.718
2.200	1193.718
2.202	-638.282
2.204	-3130.282
2.206	-3919.282
2.208	-2299.282
2.210	-3422.282
2.212	-5125.282
2.214	-4193.282
2.216	-3148.282
2.218	-1501.282
2.220	-1021.282
2.222	-225.282
2.224	2148.718
2.226	4648.718
2.228	5821.718
2.230	6949.718
2.232	7488.718
2.234	7088.718
2.236	6221.718
2.238	4911.718
2.240	3706.718
2.242	2546.718
2.244	-438.282
2.246	-2430.282
2.248	-1787.282
2.250	-1828.282
2.252	-1989.282
2.254	-2021.282
2.256	-2386.282
2.258	-1423.282
2.260	409.718
2.262	2730.718
2.264	4779.718
2.266	6431.718
2.268	7508.718
2.270	8396.718
2.272	8405.718
2.274	7875.718
2.276	7382.718
2.278	6628.718
2.280	5895.718
2.282	4850.718
2.284	1913.718
2.286	390.718
2.288	1805.718
2.290	960.718
2.292	14.718
2.294	178.718
2.296	383.718
2.298	2052.718
2.300	4139.718
2.302	5799.718
2.304	8165.718
2.306	10048.718
2.308	10723.718
2.310	10874.718
2.312	11773.718
2.314	12996.718
2.316	13012.718
2.318	11985.718
2.320	10703.718
2.322	8509.718
2.324	5011.718
2.326	3560.718
2.328	4270.718
2.330	4293.718
2.332	4436.718
2.334	5067.718
2.336	5810.718
2.338	6868.718
2.340	8116.718
2.342	9686.718
2.344	10758.718
2.346	12385.718
2.348	13695.718
2.350	15143.718
2.352	15379.718
2.354	15037.718
2.356	15195.718
2.358	14563.718
2.360	13173.718
2.362	10568.718
2.364	8290.718
2.366	9214.718
2.368	8696.718
2.370	6653.718
2.372	5931.718
2.374	6640.718
2.376	7934.718
2.378	9120.718
2.380	9680.718
2.382	11302.718
2.384	13274.718
2.386	14877.718
2.388	16046.718
2.390	16461.718
2.392	16558.718
2.394	16166.718
2.396	15491.718
2.398	14077.718
2.400	13027.718
2.402	10462.718
2.404	8235.718
2.406	8027.718
2.408	8193.718
2.410	6932.718
2.412	5251.718
2.414	5245.718
2.416	6191.718
2.418	6868.718
2.420	7741.718
2.422	8698.718
2.424	9983.718
2.426	12997.718
2.428	13503.718
2.430	12593.718
2.432	12524.718
2.434	12278.718
2.436	12105.718
2.438	11069.718
2.440	8760.718
2.442	4939.718
2.444	2590.718
2.446	2018.718
2.448	1251.718
2.450	-99.282
2.452	-553.282
2.454	-750.282
2.456	-334.282
2.458	1562.718
2.460	3089.718
2.462	3933.718
2.464	4636.718
2.466	5175.718
2.468	5920.718
2.470	7586.718
2.472	7289.718
2.474	6365.718
2.476	5294.718
2.478	4200.718
2.480	3528.718
2.482	778.718
2.484	-2413.282
2.486	-3706.282
2.488	-4094.282
2.490	-4733.282
2.492	-5298.282
2.494	-4779.282
2.496	-3952.282
2.498	-2933.282
2.500	-1553.282
2.502	-144.282
2.504	858.718
2.506	2238.718
2.508	2757.718
2.510	3146.718
2.512	3335.718
2.514	2919.718
2.516	1552.718
2.518	260.718
2.520	-268.282
2.522	-3010.282
2.524	-5953.282
2.526	-6290.282
2.528	-5058.282
2.530	-5386.282
2.532	-6949.282
2.534	-8141.282
2.536	-7922.282
2.538	-5596.282
2.540	-3732.282
2.542	-2699.282
2.544	-1251.282
2.546	913.718
2.548	1786.718
2.550	1230.718
2.552	655.718
2.554	2281.718
2.556	2897.718
2.558	1001.718
2.560	-1371.282
2.562	-4233.282
2.564	-3921.282
2.566	-4414.282
2.568	-5087.282
2.570	-6401.282
2.572	-7662.282
2.574	-7796.282
2.576	-7358.282
2.578	-6529.282
2.580	-5619.282
2.582	-3602.282
2.584	-1829.282
2.586	-238.282
2.588	1195.718
2.590	1420.718
2.592	1133.718
2.594	592.718
2.596	98.718
2.598	102.718
2.600	-1792.282
2.602	-3570.282
2.604	-4266.282
2.606	-6548.282
2.608	-7774.282
2.610	-8317.282
2.612	-8594.282
2.614	-8596.282
2.616	-6903.282
2.618	-5455.282
2.620	-5263.282
2.622	-3919.282
2.624	-1540.282
2.626	-316.282
2.628	847.718
2.630	1825.718
2.632	1309.718
2.634	1631.718
2.636	1548.718
2.638	741.718
2.640	-1099.282
2.642	-2984.282
2.644	-3896.282
2.646	-5672.282
2.648	-6426.282
2.650	-7493.282
2.652	-9057.282
2.654	-8284.282
2.656	-6863.282
2.658	-6234.282
2.660	-5293.282
2.662	-3526.282
2.664	-1650.282
2.666	410.718
2.668	1787.718
2.670	2118.718
2.672	1234.718
2.674	366.718
2.676	-1348.282
2.678	-2217.282
2.680	-3398.282
2.682	-4099.282
2.684	-4216.282
2.686	-4265.282
2.688	-5469.282
2.690	-6752.282
2.692	-7384.282
2.694	-6583.282
2.696	-5742.282
2.698	-4889.282
2.700	-4863.282
2.702	-3807.282
2.704	-1599.282
2.706	-89.282
2.708	1215.718
2.710	2098.718
2.712	2435.718
2.714	2121.718
2.716	1257.718
2.718	-460.282
2.720	-2889.282
2.722	-3755.282
2.724	-3679.282
2.726	-5872.282
2.728	-7490.282
2.730	-7693.282
2.732	-7831.282
2.734	-7507.282
2.736	-5666.282
2.738	-4391.282
2.740	-4012.282
2.742	-3488.282
2.744	-2518.282
2.746	-1189.282
2.748	448.718
2.750	3171.718
2.752	4161.718
2.754	3646.718
2.756	2232.718
2.758	157.718
2.760	-2228.282
2.762	-2046.282
2.764	-3817.282
2.766	-5392.282
2.768	-6713.282
2.770	-8193.282
2.772	-8801.282
2.774	-8376.282
2.776	-6265.282
2.778	-5009.282
2.780	-4064.282
2.782	-1998.282
2.784	-469.282
2.786	822.718
2.788	1173.718
2.790	1794.718
2.792	2365.718
2.794	1925.718
2.796	525.718
2.798	-185.282
2.800	-1464.282
2.802	-1731.282
2.804	-3231.282
2.806	-4526.282
2.808	-6204.282
2.810	-7686.282
2.812	-7658.282
2.814	-7526.282
2.816	-6729.282
2.818	-5834.282
2.820	-4636.282
2.822	-2869.282
2.824	-428.282
2.826	1459.718
2.828	2186.718
2.830	2406.718
2.832	1817.718
2.834	382.718
2.836	-571.282
2.838	-2591.282
2.840	-3656.282
2.842	-2663.282
2.844	-4630.282
2.846	-5840.282
2.848	-6729.282
2.850	-8103.282
2.852	-7466.282
2.854	-7316.282
2.856	-6731.282
2.858	-5126.282
2.860	-4428.282
2.862	-2790.282
2.864	473.718
2.866	1637.718
2.868	1313.718
2.870	596.718
2.872	1700.718
2.874	2009.718
2.876	1904.718
2.878	246.718
2.880	-574.282
2.882	-1475.282
2.884	-4010.282
2.886	-5662.282
2.888	-6469.282
2.890	-7434.282
2.892	-7858.282
2.894	-7719.282
2.896	-6649.282
2.898	-5352.282
2.900	-4064.282
2.902	-2260.282
2.904	-454.282
2.906	501.718
2.908	2422.718
2.910	2992.718
2.912	2093.718
2.914	1493.718
2.916	-388.282
2.918	-2074.282
2.920	-1877.282
2.922	-1426.282
2.924	-3054.282
2.926	-5043.282
2.928	-5408.282
2.930	-5914.282
2.932	-6885.282
2.934	-6944.282
2.936	-6055.282
2.938	-5006.282
2.940	-3956.282
2.942	-1756.282
2.944	266.718
2.946	1658.718
2.948	2756.718
2.950	2930.718
2.952	3566.718
2.954	3095.718
2.956	616.718
2.958	-1073.282
2.960	-199.282
2.962	1489.718
2.964	-154.282
2.966	-2845.282
2.968	-4284.282
2.970	-4676.282
2.972	-4668.282
2.974	-4929.282
2.976	-3961.282
2.978	-2442.282
2.980	-1432.282
2.982	310.718
2.984	2203.718
2.986	4269.718
2.988	5630.718
2.990	5468.718
2.992	5957.718
2.994	5852.718
2.996	3340.718
2.998	744.718
3.000	1777.718
3.002	2516.718
3.004	378.718
3.006	-2031.282
3.008	-4068.282
3.010	-4203.282
3.012	-3841.282
3.014	-4418.282
3.016	-3899.282
3.018	-3358.282
3.020	-3146.282
3.022	-426.282
3.024	2793.718
3.026	3222.718
3.028	3920.718
3.030	4556.718
3.032	4075.718
3.034	3206.718
3.036	1375.718
3.038	353.718
3.040	1007.718
3.042	-718.282
3.044	-2471.282
3.046	-4389.282
3.048	-6094.282
3.050	-7026.282
3.052	-7334.282
3.054	-6857.282
3.056	-6359.282
3.058	-5766.282
3.060	-5473.282
3.062	-5194.282
3.064	-3361.282
3.066	251.718
3.068	2060.718
3.070	3353.718
3.072	3031.718
3.074	1460.718
3.076	-1478.282
3.078	-2296.282
3.080	-704.282
3.082	-978.282
3.084	-3892.282
3.086	-5836.282
3.088	-6719.282
3.090	-7954.282
3.092	-8877.282
3.094	-8173.282
3.096	-6255.282
3.098	-4913.282
3.100	-4399.282
3.102	-3357.282
3.104	-611.282
3.106	285.718
3.108	828.718
3.110	1982.718
3.112	2986.718
3.114	2347.718
3.116	-149.282
3.118	-1111.282
3.120	-1341.282
3.122	-3293.282
3.124	-6147.282
3.126	-6624.282
3.128	-6067.282
3.130	-7143.282
3.132	-7531.282
3.134	-7388.282
3.136	-6839.282
3.138	-7212.282
3.140	-6149.282
3.142	-3189.282
3.144	-96.282
3.146	1367.718
3.148	1680.718
3.150	1668.718
3.152	1736.718
3.154	2080.718
3.156	-3.282
3.158	-1164.282
3.160	-1079.282
3.162	-2394.282
3.164	-4106.282
3.166	-5753.282
3.168	-6031.282
3.170	-5616.282
3.172	-5643.282
3.174	-4054.282
3.176	-898.282
3.178	1886.718
3.180	5147.718
3.182	9187.718
3.184	13445.718
3.186	17271.718
3.188	21328.718
3.190	25631.718
3.192	28763.718
3.194	29929.718
3.196	30034.718
3.198	33527.718
3.200	34953.718
3.202	35825.718
3.204	36378.718
3.206	37207.718
3.208	38337.718
3.210	39386.718
3.212	39064.718
3.214	36430.718
3.216	32388.718
3.218	29386.718
3.220	27770.718
3.222	26355.718
3.224	22515.718
3.226	17310.718
3.228	13042.718
3.230	9872.718
3.232	7082.718
3.234	3714.718
3.236	2029.718
3.238	3038.718
3.240	3078.718
3.242	840.718
3.244	-2408.282
3.246	-5413.282
3.248	-7483.282
3.250	-8830.282
3.252	-9577.282
3.254	-9034.282
3.256	-6714.282
3.258	-6316.282
3.260	-5768.282
3.262	-4103.282
3.264	-1853.282
3.266	-1079.282
3.268	-1439.282
3.270	-2259.282
3.272	-2131.282
3.274	-2951.282
3.276	-3439.282
3.278	-3455.282
3.280	-5108.282
3.282	-6576.282
3.284	-8318.282
3.286	-9261.282
3.288	-9726.282
3.290	-11369.282
3.292	-11431.282
3.294	-10764.282
3.296	-8516.282
3.298	-5934.282
3.300	-3763.282
3.302	-1400.282
3.304	761.718
3.306	1341.718
3.308	1745.718
3.310	2328.718
3.312	2025.718
3.314	613.718
3.316	189.718
3.318	1289.718
3.320	315.718
3.322	-2194.282
3.324	-4687.282
3.326	-5322.282
3.328	-5819.282
3.330	-6778.282
3.332	-8221.282
3.334	-7857.282
3.336	-6140.282
3.338	-4368.282
3.340	-2990.282
3.342	-1931.282
3.344	48.718
3.346	2131.718
3.348	3690.718
3.350	4562.718
3.352	3405.718
3.354	1379.718
3.356	-481.282
3.358	194.718
3.360	-859.282
3.362	-2739.282
3.364	-4476.282
3.366	-4943.282
3.368	-6471.282
3.370	-7644.282
3.372	-7048.282
3.374	-7238.282
3.376	-6666.282
3.378	-4461.282
3.380	-2150.282
3.382	-246.282
3.384	1371.718
3.386	2169.718
3.388	2977.718
3.390	3255.718
3.392	1910.718
3.394	1133.718
3.396	3278.718
3.398	1964.718
3.400	-178.282
3.402	-1019.282
3.404	-2256.282
3.406	-4171.282
3.408	-6187.282
3.410	-6441.282
3.412	-5810.282
3.414	-4999.282
3.416	-4036.282
3.418	-3213.282
3.420	-2278.282
3.422	-626.282
3.424	1741.718
3.426	3008.718
3.428	4136.718
3.430	5164.718
3.432	4397.718
3.434	3427.718
3.436	4086.718
3.438	3156.718
3.440	1621.718
3.442	-322.282
3.444	-3009.282
3.446	-4482.282
3.448	-5316.282
3.450	-5025.282
3.452	-4198.282
3.454	-3979.282
3.456	-3013.282
3.458	-1756.282
3.460	-291.282
3.462	905.718
3.464	2757.718
3.466	3621.718
3.468	4152.718
3.470	6455.718
3.472	6208.718
3.474	4747.718
3.476	4063.718
3.478	3166.718
3.480	1469.718
3.482	341.718
3.484	35.718
3.486	-1599.282
3.488	-3483.282
3.490	-3756.282
3.492	-2854.282
3.494	-2968.282
3.496	-2238.282
3.498	-930.282
3.500	986.718
3.502	3172.718
3.504	4746.718
3.506	5936.718
3.508	6438.718
3.510	7111.718
3.512	6448.718
3.514	6761.718
3.516	6898.718
3.518	5055.718
3.520	3161.718
3.522	1152.718
3.524	-466.282
3.526	-891.282
3.528	-514.282
3.530	-1263.282
3.532	-615.282
3.534	161.718
3.536	396.718
3.538	980.718
3.540	2804.718
3.542	5413.718
3.544	7438.718
3.546	9077.718
3.548	10043.718
3.550	10588.718
3.552	9532.718
3.554	8117.718
3.556	8240.718
3.558	7891.718
3.560	6014.718
3.562	4755.718
3.564	3677.718
3.566	3014.718
3.568	1528.718
3.570	1.718
3.572	-689.282
3.574	55.718
3.576	2517.718
3.578	5010.718
3.580	6378.718
3.582	7396.718
3.584	9653.718
3.586	11189.718
3.588	12229.718
3.590	12675.718
3.592	11159.718
3.594	10968.718
3.596	11811.718
3.598	11458.718
3.600	10199.718
3.602	8247.718
3.604	5393.718
3.606	4583.718
3.608	4976.718
3.610	4940.718
3.612	4454.718
3.614	3569.718
3.616	4426.718
3.618	6365.718
3.620	8842.718
3.622	11142.718
3.624	13575.718
3.626	14578.718
3.628	14766.718
3.630	14753.718
3.632	14794.718
3.634	16344.718
3.636	15091.718
3.638	13253.718
3.640	10223.718
3.642	7603.718
3.644	7998.718
3.646	8913.718
3.648	8141.718
3.650	7741.718
3.652	7880.718
3.654	7933.718
3.656	8655.718
3.658	9300.718
3.660	10953.718
3.662	12996.718
3.664	14773.718
3.666	15850.718
3.668	17319.718
3.670	17150.718
3.672	16529.718
3.674	17032.718
3.676	16575.718
3.678	15116.718
3.680	13941.718
3.682	12333.718
3.684	9929.718
3.686	8420.718
3.688	7634.718
3.690	6343.718
3.692	5614.718
3.694	5842.718
3.696	6877.718
3.698	7428.718
3.700	8679.718
3.702	11381.718
3.704	13665.718
3.706	13992.718
3.708	14275.718
3.710	13108.718
3.712	12153.718
3.714	12618.718
3.716	11066.718
3.718	9680.718
3.720	8206.718
3.722	6495.718
3.724	5466.718
3.726	4374.718
3.728	2426.718
3.730	764.718
3.732	-284.282
3.734	-74.282
3.736	1055.718
3.738	2348.718
3.740	3779.718
3.742	5134.718
3.744	6347.718
3.746	6843.718
3.748	7096.718
3.750	6068.718
3.752	5693.718
3.754	5825.718
3.756	5061.718
3.758	4321.718
3.760	2701.718
3.762	539.718
3.764	-1923.282
3.766	-1419.282
3.768	-2336.282
3.770	-4340.282
3.772	-4021.282
3.774	-3496.282
3.776	-3497.282
3.778	-2615.282
3.780	-886.282
3.782	1216.718
3.784	2880.718
3.786	3300.718
3.788	3172.718
3.790	2059.718
3.792	1818.718
3.794	4048.718
3.796	3812.718
3.798	2000.718
3.800	134.718
3.802	-2094.282
3.804	-3827.282
3.806	-4926.282
3.808	-6369.282
3.810	-6708.282
3.812	-6367.282
3.814	-6244.282
3.816	-5452.282
3.818	-4259.282
3.820	-3010.282
3.822	-2339.282
3.824	195.718
3.826	2467.718
3.828	1750.718
3.830	-104.282
3.832	1104.718
3.834	797.718
3.836	426.718
3.838	-433.282
3.840	-3176.282
3.842	-5062.282
3.844	-6532.282
3.846	-7518.282
3.848	-8324.282
3.850	-8271.282
3.852	-7069.282
3.854	-5752.282
3.856	-5156.282
3.858	-5469.282
3.860	-3643.282
3.862	-1631.282
3.864	169.718
3.866	856.718
3.868	751.718
3.870	1430.718
3.872	3058.718
3.874	1141.718
3.876	-1368.282
3.878	-1556.282
3.880	-2292.282
3.882	-2432.282
3.884	-3355.282
3.886	-4982.282
3.888	-6904.282
3.890	-7920.282
3.892	-8301.282
3.894	-6771.282
3.896	-5179.282
3.898	-4584.282
3.900	-2831.282
3.902	-1132.282
3.904	120.718
3.906	1472.718
3.908	1462.718
3.910	1516.718
3.912	2524.718
3.914	1687.718
3.916	458.718
3.918	68.718
3.920	-1491.282
3.922	-3990.282
3.924	-6184.282
3.926	-7371.282
3.928	-8394.282
3.930	-8308.282
3.932	-7689.282
3.934	-6945.282
3.936	-4574.282
3.938	-3382.282
3.940	-2935.282
3.942	-1563.282
3.944	368.718
3.946	2128.718
3.948	1365.718
3.950	391.718
3.952	2255.718
3.954	2603.718
3.956	671.718
3.958	-679.282
3.960	-1630.282
3.962	-3723.282
3.964	-5646.282
3.966	-6696.282
3.968	-6441.282
3.970	-6086.282
3.972	-5999.282
3.974	-6241.282
3.976	-5951.282
3.978	-5173.282
3.980	-3384.282
3.982	-974.282
3.984	491.718
3.986	1078.718
3.988	1137.718
3.990	1226.718
3.992	3023.718
3.994	3090.718
3.996	1582.718
3.998	463.718
4.000	-2054.282
4.002	-4641.282
4.004	-5218.282
4.006	-5633.282
4.008	-7104.282
4.010	-7939.282
4.012	-8039.282
4.014	-7218.282
4.016	-6012.282
4.018	-4002.282
4.020	-1567.282
4.022	-35.282
4.024	1932.718
4.026	2252.718
4.028	1381.718
4.030	3577.718
4.032	3760.718
4.034	2562.718
4.036	1066.718
4.038	-53.282
4.040	-1487.282
4.042	-3593.282
4.044	-5707.282
4.046	-6704.282
4.048	-7449.282
4.050	-7605.282
4.052	-7377.282
4.054	-7149.282
4.056	-6018.282
4.058	-4946.282
4.060	-3442.282
4.062	-1430.282
4.064	96.718
4.066	-96.282
4.068	807.718
4.070	3636.718
4.072	3792.718
4.074	2870.718
4.076	2104.718
4.078	1108.718
4.080	-784.282
4.082	-3454.282
4.084	-5218.282
4.086	-6094.282
4.088	-8362.282
4.090	-9866.282
4.092	-8558.282
4.094	-6098.282
4.096	-5191.282
4.098	-3542.282
4.100	-1113.282
4.102	295.718
4.104	1428.718
4.106	849.718
4.108	938.718
4.110	2231.718
4.112	2093.718
4.114	1940.718
4.116	1070.718
4.118	-16.282
4.120	-1464.282
4.122	-2559.282
4.124	-2868.282
4.126	-4885.282
4.128	-6493.282
4.130	-6434.282
4.132	-6621.282
4.134	-6489.282
4.136	-5198.282
4.138	-3830.282
4.140	-1984.282
4.142	-434.282
4.144	1455.718
4.146	2000.718
4.148	2648.718
4.150	3739.718
4.152	3018.718
4.154	1531.718
4.156	385.718
4.158	-787.282
4.160	-2283.282
4.162	-3977.282
4.164	-5199.282
4.166	-5594.282
4.168	-6643.282
4.170	-7452.282
4.172	-7769.282
4.174	-7373.282
4.176	-5684.282
4.178	-3706.282
4.180	-2299.282
4.182	-1328.282
4.184	15.718
4.186	227.718
4.188	906.718
4.190	3317.718
4.192	3602.718
4.194	1877.718
4.196	376.718
4.198	-1074.282
4.200	-2729.282
4.202	-3422.282
4.204	-4573.282
4.206	-5509.282
4.208	-6054.282
4.210	-6508.282
4.212	-6783.282
4.214	-6261.282
4.216	-5262.282
4.218	-3539.282
4.220	-2219.282
4.222	-306.282
4.224	1358.718
4.226	1745.718
4.228	4818.718
4.230	6126.718
4.232	5780.718
4.234	4600.718
4.236	2466.718
4.238	788.718
4.240	-113.282
4.242	-1830.282
4.244	-2783.282
4.246	-3484.282
4.248	-4290.282
4.250	-4394.282
4.252	-4537.282
4.254	-3949.282
4.256	-3809.282
4.258	-3436.282
4.260	-1451.282
4.262	1532.718
4.264	3048.718
4.266	3621.718
4.268	6025.718
4.270	6311.718
4.272	6110.718
4.274	4887.718
4.276	3598.718
4.278	2643.718
4.280	1111.718
4.282	-1310.282
4.284	-3216.282
4.286	-4043.282
4.288	-4939.282
4.290	-4647.282
4.292	-4761.282
4.294	-5328.282
4.296	-4797.282
4.298	-3913.282
4.300	-2726.282
4.302	-489.282
4.304	764.718
4.306	1676.718
4.308	3887.718
4.310	3659.718
4.312	3371.718
4.314	2438.718
4.316	289.718
4.318	-1334.282
4.320	-2194.282
4.322	-3842.282
4.324	-5517.282
4.326	-6901.282
4.328	-7897.282
4.330	-8579.282
4.332	-8776.282
4.334	-7216.282
4.336	-5328.282
4.338	-4533.282
4.340	-3448.282
4.342	-2354.282
4.344	-1725.282
4.346	56.718
4.348	2172.718
4.350	2223.718
4.352	1451.718
4.354	-286.282
4.356	-1019.282
4.358	-1682.282
4.360	-3520.282
4.362	-5685.282
4.364	-6682.282
4.366	-8022.282
4.368	-9155.282
4.370	-7897.282
4.372	-8378.282
4.374	-8125.282
4.376	-7199.282
4.378	-6241.282
4.380	-3013.282
4.382	-860.282
4.384	-1255.282
4.386	248.718
4.388	2066.718
4.390	1068.718
4.392	309.718
4.394	-128.282
4.396	-695.282
4.398	-1578.282
4.400	-3304.282
4.402	-6298.282
4.404	-8124.282
4.406	-9266.282
4.408	-9713.282
4.410	-9396.282
4.412	-7676.282
4.414	-6082.282
4.416	-5274.282
4.418	-4424.282
4.420	-2841.282
4.422	-277.282
4.424	21.718
4.426	-171.282
4.428	1270.718
4.430	1059.718
4.432	816.718
4.434	1444.718
4.436	2040.718
4.438	2106.718
4.440	1830.718
4.442	1308.718
4.444	1555.718
4.446	4096.718
4.448	6705.718
4.450	7925.718
4.452	9253.718
4.454	11982.718
4.456	15361.718
4.458	19266.718
4.460	24323.718
4.462	28992.718
4.464	33001.718
4.466	38882.718
4.468	41381.718
4.470	42378.718
4.472	43613.718
4.474	43424.718
4.476	43796.718
4.478	41385.718
4.480	35161.718
4.482	29127.718
4.484	26147.718
4.486	22443.718
4.488	17121.718
4.490	11123.718
4.492	6785.718
4.494	4366.718
4.496	2299.718
4.498	1002.718
4.500	1401.718
4.502	1651.718
4.504	2908.718
4.506	4543.718
4.508	5329.718
4.510	4780.718
4.512	2027.718
4.514	-231.282
4.516	-1263.282
4.518	-2002.282
4.520	-4059.282
4.522	-6781.282
4.524	-8600.282
4.526	-10341.282
4.528	-11409.282
4.530	-11269.282
4.532	-11283.282
4.534	-10398.282
4.536	-9086.282
4.538	-7328.282
4.540	-6238.282
4.542	-6284.282
4.544	-4571.282
4.546	-1555.282
4.548	-615.282
4.550	-440.282
4.552	-628.282
4.554	-1704.282
4.556	-2980.282
4.558	-4692.282
4.560	-5897.282
4.562	-6898.282
4.564	-8015.282
4.566	-7191.282
4.568	-7254.282
4.570	-8358.282
4.572	-8714.282
4.574	-8498.282
4.576	-7363.282
4.578	-5699.282
4.580	-4279.282
4.582	-3269.282
4.584	-1564.282
4.586	615.718
4.588	901.718
4.590	588.718
4.592	696.718
4.594	181.718
4.596	-931.282
4.598	-2259.282
4.600	-2434.282
4.602	-4059.282
4.604	-5689.282
4.606	-6723.282
4.608	-8781.282
4.610	-8878.282
4.612	-8186.282
4.614	-7349.282
4.616	-6259.282
4.618	-4823.282
4.620	-3299.282
4.622	-2426.282
4.624	-1030.282
4.626	1661.718
4.628	2737.718
4.630	2191.718
4.632	1325.718
4.634	881.718
4.636	278.718
4.638	-1679.282
4.640	-3431.282
4.642	-4957.282
4.644	-5984.282
4.646	-6551.282
4.648	-6628.282
4.650	-6705.282
4.652	-6587.282
4.654	-5924.282
4.656	-4921.282
4.658	-3666.282
4.660	-3667.282
4.662	-3489.282
4.664	680.718
4.666	2186.718
4.668	2325.718
4.670	2593.718
4.672	2712.718
4.674	1679.718
4.676	1620.718
4.678	1273.718
4.680	-1071.282
4.682	-4164.282
4.684	-5497.282
4.686	-6226.282
4.688	-7328.282
4.690	-7054.282
4.692	-6611.282
4.694	-5606.282
4.696	-4855.282
4.698	-3686.282
4.700	-3302.282
4.702	-2116.282
4.704	1548.718
4.706	2738.718
4.708	3400.718
4.710	3732.718
4.712	3966.718
4.714	2580.718
4.716	691.718
4.718	-281.282
4.720	-1321.282
4.722	-3249.282
4.724	-4403.282
4.726	-3218.282
4.728	-4189.282
4.730	-5331.282
4.732	-6802.282
4.734	-6094.282
4.736	-3596.282
4.738	-1683.282
4.740	-929.282
4.742	1903.718
4.744	4865.718
4.746	4804.718
4.748	4304.718
4.750	4624.718
4.752	4388.718
4.754	3250.718
4.756	2217.718
4.758	1597.718
4.760	264.718
4.762	-2371.282
4.764	-3616.282
4.766	-3251.282
4.768	-3499.282
4.770	-3867.282
4.772	-4401.282
4.774	-3183.282
4.776	-2181.282
4.778	-874.282
4.780	-174.282
4.782	1397.718
4.784	4913.718
4.786	6076.718
4.788	6749.718
4.790	7597.718
4.792	7004.718
4.794	5056.718
4.796	3821.718
4.798	2874.718
4.800	2126.718
4.802	710.718
4.804	-1097.282
4.806	-1376.282
4.808	-1954.282
4.810	-2378.282
4.812	-2389.282
4.814	-856.282
4.816	321.718
4.818	1029.718
4.820	2146.718
4.822	4718.718
4.824	6892.718
4.826	7771.718
4.828	8502.718
4.830	8912.718
4.832	8533.718
4.834	6860.718
4.836	5345.718
4.838	3988.718
4.840	2555.718
4.842	1292.718
4.844	1611.718
4.846	1436.718
4.848	388.718
4.850	203.718
4.852	1748.718
4.854	2603.718
4.856	3065.718
4.858	5006.718
4.860	7219.718
4.862	11026.718
4.864	12108.718
4.866	12290.718
4.868	12798.718
4.870	13028.718
4.872	13024.718
4.874	11898.718
4.876	10453.718
4.878	9213.718
4.880	7424.718
4.882	5825.718
4.884	4831.718
4.886	3484.718
4.888	2430.718
4.890	2628.718
4.892	4365.718
4.894	5935.718
4.896	6963.718
4.898	6916.718
4.900	8315.718
4.902	12345.718
4.904	13853.718
4.906	14527.718
4.908	15275.718
4.910	14689.718
4.912	11940.718
4.914	11832.718
4.916	13415.718
4.918	12558.718
4.920	10673.718
4.922	8561.718
4.924	7670.718
4.926	6401.718
4.928	5673.718
4.930	5948.718
4.932	6717.718
4.934	8041.718
4.936	8516.718
4.938	8363.718
4.940	9231.718
4.942	13079.718
4.944	14128.718
4.946	14911.718
4.948	15346.718
4.950	14895.718
4.952	14916.718
4.954	13741.718
4.956	12333.718
4.958	10681.718
4.960	8823.718
4.962	6767.718
4.964	4640.718
4.966	2887.718
4.968	1801.718
4.970	1181.718
4.972	1619.718
4.974	3291.718
4.976	4842.718
4.978	5871.718
4.980	6527.718
4.982	8314.718
4.984	8770.718
4.986	9713.718
4.988	10401.718
4.990	9313.718
4.992	8554.718
4.994	6920.718
4.996	5005.718
4.998	3750.718
5.000	2559.718
5.002	733.718
5.004	-244.282
5.006	-1419.282
5.008	-2652.282
5.010	-3073.282
5.012	-2208.282
5.014	-695.282
5.016	-1029.282
5.018	-2326.282
5.020	-926.282
5.022	2382.718
5.024	3695.718
5.026	3648.718
5.028	4111.718
5.030	4570.718
5.032	4812.718
5.034	3849.718
5.036	1791.718
5.038	429.718
5.040	-1126.282
5.042	-3405.282
5.044	-4561.282
5.046	-6109.282
5.048	-7779.282
5.050	-7938.282
5.052	-7383.282
5.054	-5963.282
5.056	-4534.282
5.058	-4874.282
5.060	-4251.282
5.062	156.718
5.064	1602.718
5.066	523.718
5.068	1053.718
5.070	878.718
5.072	1076.718
5.074	1473.718
5.076	75.718
5.078	-1928.282
5.080	-4686.282
5.082	-7261.282
5.084	-7566.282
5.086	-8612.282
5.088	-9085.282
5.090	-9195.282
5.092	-8474.282
5.094	-6632.282
5.096	-6655.282
5.098	-5909.282
5.100	-1419.282
5.102	65.718
5.104	-24.282
5.106	202.718
5.108	941.718
5.110	1398.718
5.112	-144.282
5.114	-2005.282
5.116	-3288.282
5.118	-3759.282
5.120	-4364.282
5.122	-5821.282
5.124	-6578.282
5.126	-8803.282
5.128	-10174.282
5.130	-9019.282
5.132	-8186.282
5.134	-7111.282
5.136	-7315.282
5.138	-6473.282
5.140	-3234.282
5.142	-1288.282
5.144	-575.282
5.146	630.718
5.148	1648.718
5.150	1796.718
5.152	1071.718
5.154	-807.282
5.156	-1983.282
5.158	-2931.282
5.160	-4651.282
5.162	-6340.282
5.164	-7606.282
5.166	-9234.282
5.168	-9993.282
5.170	-9438.282
5.172	-7997.282
5.174	-6464.282
5.176	-7384.282
5.178	-7533.282
5.180	-3996.282
5.182	-1851.282
5.184	-714.282
5.186	1161.718
5.188	896.718
5.190	267.718
5.192	133.718
5.194	-766.282
5.196	-1797.282
5.198	-2771.282
5.200	-3919.282
5.202	-6184.282
5.204	-8076.282
5.206	-9246.282
5.208	-10073.282
5.210	-9316.282
5.212	-7851.282
5.214	-6620.282
5.216	-7026.282
5.218	-5988.282
5.220	-4004.282
5.222	-2315.282
5.224	-516.282
5.226	2042.718
5.228	2470.718
5.230	1103.718
5.232	270.718
5.234	-225.282
5.236	-1151.282
5.238	-3032.282
5.240	-4973.282
5.242	-6382.282
5.244	-7643.282
5.246	-8413.282
5.248	-9389.282
5.250	-9970.282
5.252	-8808.282
5.254	-5876.282
5.256	-6676.282
5.258	-6067.282
5.260	-2873.282
5.262	-883.282
5.264	386.718
5.266	1095.718
5.268	750.718
5.270	313.718
5.272	-1051.282
5.274	-1838.282
5.276	-1073.282
5.278	-1994.282
5.280	-4551.282
5.282	-6438.282
5.284	-6816.282
5.286	-7827.282
5.288	-9123.282
5.290	-9098.282
5.292	-8084.282
5.294	-7500.282
5.296	-8287.282
5.298	-5175.282
5.300	-2358.282
5.302	-143.282
5.304	1573.718
5.306	2646.718
5.308	2849.718
5.310	1362.718
5.312	-564.282
5.314	-1669.282
5.316	-2413.282
5.318	-3716.282
5.320	-5476.282
5.322	-6441.282
5.324	-6698.282
5.326	-8138.282
5.328	-9017.282
5.330	-8293.282
5.332	-7458.282
5.334	-8301.282
5.336	-7888.282
5.338	-4234.282
5.340	-1949.282
5.342	-1759.282
5.344	-2016.282
5.346	1293.718
5.348	3035.718
5.350	2482.718
5.352	1818.718
5.354	135.718
5.356	-2095.282
5.358	-4143.282
5.360	-5008.282
5.362	-5217.282
5.364	-6095.282
5.366	-7686.282
5.368	-9066.282
5.370	-9024.282
5.372	-7844.282
5.374	-7631.282
5.376	-6849.282
5.378	-3413.282
5.380	-2084.282
5.382	-814.282
5.384	571.718
5.386	255.718
5.388	123.718
5.390	1311.718
5.392	1568.718
5.394	-764.282
5.396	-1573.282
5.398	-2706.282
5.400	-4924.282
5.402	-6583.282
5.404	-7676.282
5.406	-8709.282
5.408	-8618.282
5.410	-8714.282
5.412	-8619.282
5.414	-8086.282
5.416	-6974.282
5.418	-5273.282
5.420	-3905.282
5.422	-2302.282
5.424	-259.282
5.426	2508.718
5.428	3032.718
5.430	1593.718
5.432	551.718
5.434	-461.282
5.436	-1219.282
5.438	-1778.282
5.440	-3193.282
5.442	-6434.282
5.444	-7807.282
5.446	-8020.282
5.448	-8029.282
5.450	-8433.282
5.452	-7821.282
5.454	-7516.282
5.456	-5958.282
5.458	-3101.282
5.460	-1222.282
5.462	627.718
5.464	1405.718
5.466	1873.718
5.468	2158.718
5.470	2250.718
5.472	2553.718
5.474	2516.718
5.476	1894.718
5.478	-183.282
5.480	-2129.282
5.482	-3646.282
5.484	-3718.282
5.486	-4802.282
5.488	-6309.282
5.490	-6450.282
5.492	-7056.282
5.494	-6791.282
5.496	-2564.282
5.498	-990.282
5.500	226.718
5.502	2074.718
5.504	2835.718
5.506	3664.718
5.508	3643.718
5.510	3488.718
5.512	3056.718
5.514	2660.718
5.516	2083.718
5.518	435.718
5.520	-1624.282
5.522	-4108.282
5.524	-5516.282
5.526	-5992.282
5.528	-5898.282
5.530	-7147.282
5.532	-8305.282
5.534	-6884.282
5.536	-3037.282
5.538	-1201.282
5.540	-663.282
5.542	541.718
5.544	2472.718
5.546	2527.718
5.548	1330.718
5.550	186.718
5.552	399.718
5.554	210.718
5.556	-1382.282
5.558	-3949.282
5.560	-5223.282
5.562	-6275.282
5.564	-7429.282
5.566	-8104.282
5.568	-8294.282
5.570	-8716.282
5.572	-10590.282
5.574	-9930.282
5.576	-7104.282
5.578	-4948.282
5.580	-3001.282
5.582	-1359.282
5.584	-764.282
5.586	-231.282
5.588	298.718
5.590	909.718
5.592	766.718
5.594	-1656.282
5.596	-3226.282
5.598	-4729.282
5.600	-6641.282
5.602	-8141.282
5.604	-8796.282
5.606	-9696.282
5.608	-10077.282
5.610	-10063.282
5.612	-9869.282
5.614	-8764.282
5.616	-6793.282
5.618	-5171.282
5.620	-3359.282
5.622	-1278.282
5.624	358.718
5.626	458.718
5.628	-430.282
5.630	-380.282
5.632	-1950.282
5.634	-4536.282
5.636	-4740.282
5.638	-3791.282
5.640	-4271.282
5.642	-6636.282
5.644	-8766.282
5.646	-10656.282
5.648	-11676.282
5.650	-11468.282
5.652	-11241.282
5.654	-9488.282
5.656	-5768.282
5.658	-3813.282
5.660	-3029.282
5.662	-1874.282
5.664	-223.282
5.666	-49.282
5.668	-130.282
5.670	153.718
5.672	155.718
5.674	-1324.282
5.676	-2322.282
5.678	-3006.282
5.680	-4705.282
5.682	-6821.282
5.684	-7085.282
5.686	-6213.282
5.688	-4580.282
5.690	-3210.282
5.692	-401.282
5.694	4462.718
5.696	8442.718
5.698	11521.718
5.700	15304.718
5.702	19260.718
5.704	22242.718
5.706	25633.718
5.708	30017.718
5.710	34175.718
5.712	35446.718
5.714	36141.718
5.716	37569.718
5.718	37568.718
5.720	38001.718
5.722	38441.718
5.724	37616.718
5.726	34600.718
5.728	30124.718
5.730	24758.718
5.732	21396.718
5.734	21843.718
5.736	18741.718
5.738	13803.718
5.740	10804.718
5.742	9030.718
5.744	7275.718
5.746	6737.718
5.748	7610.718
5.750	7456.718
5.752	4608.718
5.754	2841.718
5.756	2219.718
5.758	-377.282
5.760	-3731.282
5.762	-6223.282
5.764	-7145.282
5.766	-6824.282
5.768	-7886.282
5.770	-10304.282
5.772	-10372.282
5.774	-7683.282
5.776	-7168.282
5.778	-7072.282
5.780	-7056.282
5.782	-5068.282
5.784	-3169.282
5.786	-2559.282
5.788	-2929.282
5.790	-1957.282
5.792	-1783.282
5.794	-2924.282
5.796	-4743.282
5.798	-6483.282
5.800	-7928.282
5.802	-8863.282
5.804	-9038.282
5.806	-9088.282
5.808	-9171.282
5.810	-10286.282
5.812	-10065.282
5.814	-7261.282
5.816	-5536.282
5.818	-3954.282
5.820	-2383.282
5.822	-891.282
5.824	-486.282
5.826	188.718
5.828	58.718
5.830	-886.282
5.832	-650.282
5.834	-918.282
5.836	-3058.282
5.838	-4852.282
5.840	-5618.282
5.842	-6819.282
5.844	-7974.282
5.846	-9507.282
5.848	-10481.282
5.850	-10684.282
5.852	-8935.282
5.854	-6593.282
5.856	-5746.282
5.858	-4346.282
5.860	-1868.282
5.862	-229.282
5.864	771.718
5.866	1436.718
5.868	1275.718
5.870	388.718
5.872	-663.282
5.874	-1441.282
5.876	-2203.282
5.878	-3632.282
5.880	-5714.282
5.882	-7236.282
5.884	-8237.282
5.886	-9543.282
5.888	-9535.282
5.890	-10804.282
5.892	-10058.282
5.894	-6793.282
5.896	-4636.282
5.898	-3036.282
5.900	-1642.282
5.902	415.718
5.904	1557.718
5.906	2084.718
5.908	1659.718
5.910	1348.718
5.912	986.718
5.914	229.718
5.916	-1441.282
5.918	-2949.282
5.920	-4424.282
5.922	-5711.282
5.924	-6024.282
5.926	-7150.282
5.928	-8941.282
5.930	-10000.282
5.932	-7499.282
5.934	-6453.282
5.936	-5683.282
5.938	-3389.282
5.940	-970.282
5.942	-218.282
5.944	122.718
5.946	130.718
5.948	1815.718
5.950	2428.718
5.952	562.718
5.954	-420.282
5.956	-1365.282
5.958	-2188.282
5.960	-3224.282
5.962	-4708.282
5.964	-4832.282
5.966	-5660.282
5.968	-7313.282
5.970	-7148.282
5.972	-5408.282
5.974	-4819.282
5.976	-5044.282
5.978	-3274.282
5.980	-228.282
5.982	1840.718
5.984	2541.718
5.986	2928.718
5.988	2408.718
5.990	2755.718
5.992	3498.718
5.994	3030.718
5.996	1123.718
5.998	-1189.282
6.000	-2839.282
6.002	-3556.282
6.004	-4098.282
6.006	-4737.282
6.008	-5534.282
6.010	-5628.282
6.012	-3726.282
6.014	-2583.282
6.016	-1773.282
6.018	140.718
6.020	2891.718
6.022	4272.718
6.024	4443.718
6.026	4377.718
6.028	4281.718
6.030	4181.718
6.032	3843.718
6.034	2738.718
6.036	2521.718
6.038	1621.718
6.040	-1126.282
6.042	-2741.282
6.044	-3406.282
6.046	-3788.282
6.048	-5156.282
6.050	-5655.282
6.052	-3726.282
6.054	-841.282
6.056	2148.718
6.058	3470.718
6.060	4474.718
6.062	5338.718
6.064	6478.718
6.066	7352.718
6.068	7195.718
6.070	6976.718
6.072	6558.718
6.074	5201.718
6.076	4142.718
6.078	3185.718
6.080	1723.718
6.082	1281.718
6.084	494.718
6.086	-433.282
6.088	-2223.282
6.090	-2162.282
6.092	759.718
6.094	2111.718
6.096	2997.718
6.098	4510.718
6.100	7390.718
6.102	9710.718
6.104	10456.718
6.106	9440.718
6.108	8776.718
6.110	9509.718
6.112	9186.718
6.114	8444.718
6.116	7345.718
6.118	5609.718
6.120	4955.718
6.122	5365.718
6.124	4114.718
6.126	1639.718
6.128	796.718
6.130	3674.718
6.132	5694.718
6.134	5752.718
6.136	5935.718
6.138	7809.718
6.140	10764.718
6.142	12171.718
6.144	13243.718
6.146	13611.718
6.148	14625.718
6.150	14870.718
6.152	13458.718
6.154	12034.718
6.156	11266.718
6.158	9419.718
6.160	7918.718
6.162	7332.718
6.164	6093.718
6.166	3970.718
6.168	3472.718
6.170	5306.718
6.172	7191.718
6.174	8103.718
6.176	9022.718
6.178	9933.718
6.180	10723.718
6.182	12149.718
6.184	13890.718
6.186	15983.718
6.188	15980.718
6.190	14562.718
6.192	13123.718
6.194	11579.718
6.196	10107.718
6.198	8846.718
6.200	6875.718
6.202	5585.718
6.204	5160.718
6.206	2820.718
6.208	2045.718
6.210	3605.718
6.212	3876.718
6.214	4301.718
6.216	6240.718
6.218	7462.718
6.220	8951.718
6.222	10394.718
6.224	12006.718
6.226	11755.718
6.228	10763.718
6.230	9485.718
6.232	8410.718
6.234	7596.718
6.236	5403.718
6.238	2851.718
6.240	326.718
6.242	-1169.282
6.244	-2139.282
6.246	-3919.282
6.248	-4715.282
6.250	-3126.282
6.252	-1209.282
6.254	138.718
6.256	728.718
6.258	1880.718
6.260	3322.718
6.262	4042.718
6.264	4609.718
6.266	4213.718
6.268	4102.718
6.270	4044.718
6.272	2856.718
6.274	1532.718
6.276	271.718
6.278	-1746.282
6.280	-4811.282
6.282	-6588.282
6.284	-6918.282
6.286	-8459.282
6.288	-8881.282
6.290	-6612.282
6.292	-5151.282
6.294	-5344.282
6.296	-4169.282
6.298	-2299.282
6.300	-1484.282
6.302	-226.282
6.304	743.718
6.306	778.718
6.308	-91.282
6.310	-291.282
6.312	-1003.282
6.314	-1707.282
6.316	-2928.282
6.318	-4768.282
6.320	-6681.282
6.322	-8692.282
6.324	-10566.282
6.326	-11114.282
6.328	-9728.282
6.330	-7891.282
6.332	-6808.282
6.334	-5669.282
6.336	-4101.282
6.338	-2681.282
6.340	-1633.282
6.342	-422.282
6.344	-196.282
6.346	456.718
6.348	1283.718
6.350	445.718
6.352	-604.282
6.354	-1654.282
6.356	-2935.282
6.358	-4711.282
6.360	-6835.282
6.362	-8568.282
6.364	-9559.282
6.366	-11546.282
6.368	-11353.282
6.370	-10899.282
6.372	-9251.282
6.374	-7621.282
6.376	-5159.282
6.378	-4208.282
6.380	-2752.282
6.382	-1804.282
6.384	-91.282
6.386	255.718
6.388	-233.282
6.390	-603.282
6.392	-953.282
6.394	-1983.282
6.396	-3959.282
6.398	-4769.282
6.400	-4933.282
6.402	-5829.282
6.404	-8382.282
6.406	-10264.282
6.408	-9459.282
6.410	-9001.282
6.412	-7933.282
6.414	-6532.282
6.416	-5045.282
6.418	-3251.282
6.420	-1452.282
6.422	-598.282
6.424	212.718
6.426	958.718
6.428	330.718
6.430	-409.282
6.432	-1690.282
6.434	-2986.282
6.436	-4339.282
6.438	-5041.282
6.440	-6211.282
6.442	-6772.282
6.444	-8774.282
6.446	-10428.282
6.448	-9407.282
6.450	-9469.282
6.452	-8418.282
6.454	-7197.282
6.456	-5317.282
6.458	-2844.282
6.460	-698.282
6.462	-671.282
6.464	-366.282
6.466	-106.282
6.468	-632.282
6.470	-631.282
6.472	-1613.282
6.474	-2304.282
6.476	-3240.282
6.478	-4993.282
6.480	-7691.282
6.482	-8956.282
6.484	-10825.282
6.486	-11491.282
6.488	-10346.282
6.490	-9669.282
6.492	-8645.282
6.494	-7767.282
6.496	-6263.282
6.498	-4338.282
6.500	-2049.282
6.502	-54.282
6.504	1421.718
6.506	1199.718
6.508	324.718
6.510	143.718
6.512	-1277.282
6.514	-2749.282
6.516	-3829.282
6.518	-4728.282
6.520	-6880.282
6.522	-8478.282
6.524	-10707.282
6.526	-10654.282
6.528	-7686.282
6.530	-7036.282
6.532	-7080.282
6.534	-6444.282
6.536	-4779.282
6.538	-3549.282
6.540	-1929.282
6.542	-331.282
6.544	956.718
6.546	630.718
6.548	-32.282
6.550	-515.282
6.552	-1358.282
6.554	-1735.282
6.556	-2641.282
6.558	-4100.282
6.560	-6221.282
6.562	-8884.282
6.564	-11879.282
6.566	-10884.282
6.568	-10266.282
6.570	-9339.282
6.572	-7859.282
6.574	-7291.282
6.576	-6450.282
6.578	-4334.282
6.580	-2208.282
6.582	-667.282
6.584	1281.718
6.586	2725.718
6.588	1502.718
6.590	526.718
6.592	-1539.282
6.594	-3493.282
6.596	-4946.282
6.598	-6487.282
6.600	-7428.282
6.602	-9116.282
6.604	-8819.282
6.606	-6864.282
6.608	-7871.282
6.610	-8679.282
6.612	-7980.282
6.614	-7386.282
6.616	-6278.282
6.618	-4507.282
6.620	-2748.282
6.622	-1707.282
6.624	-109.282
6.626	1689.718
6.628	981.718
6.630	467.718
6.632	-108.282
6.634	-848.282
6.636	-2283.282
6.638	-4501.282
6.640	-6488.282
6.642	-8873.282
6.644	-10522.282
6.646	-9521.282
6.648	-9088.282
6.650	-9344.282
6.652	-8413.282
6.654	-7624.282
6.656	-6647.282
6.658	-4138.282
6.660	-1348.282
6.662	98.718
6.664	756.718
6.666	205.718
6.668	200.718
6.670	-290.282
6.672	-891.282
6.674	-1383.282
6.676	-2697.282
6.678	-3401.282
6.680	-5335.282
6.682	-7938.282
6.684	-9199.282
6.686	-8824.282
6.688	-8629.282
6.690	-8873.282
6.692	-7593.282
6.694	-6016.282
6.696	-4405.282
6.698	-2627.282
6.700	-262.282
6.702	1801.718
6.704	2671.718
6.706	3807.718
6.708	3888.718
6.710	3698.718
6.712	1936.718
6.714	638.718
6.716	-510.282
6.718	-1309.282
6.720	-3204.282
6.722	-6139.282
6.724	-7420.282
6.726	-6556.282
6.728	-6669.282
6.730	-6324.282
6.732	-5621.282
6.734	-5290.282
6.736	-2738.282
6.738	-163.282
6.740	2101.718
6.742	2077.718
6.744	2338.718
6.746	2824.718
6.748	1760.718
6.750	1899.718
6.752	1756.718
6.754	640.718
6.756	-1164.282
6.758	-2793.282
6.760	-5799.282
6.762	-7467.282
6.764	-6257.282
6.766	-5697.282
6.768	-5191.282
6.770	-5121.282
6.772	-4393.282
6.774	-3416.282
6.776	-2143.282
6.778	-648.282
6.780	1095.718
6.782	1890.718
6.784	2603.718
6.786	2546.718
6.788	1881.718
6.790	1035.718
6.792	-988.282
6.794	-2361.282
6.796	-3976.282
6.798	-5592.282
6.800	-8516.282
6.802	-11201.282
6.804	-10353.282
6.806	-10480.282
6.808	-10541.282
6.810	-10199.282
6.812	-9024.282
6.814	-8427.282
6.816	-6262.282
6.818	-3692.282
6.820	-1388.282
6.822	296.718
6.824	66.718
6.826	-1952.282
6.828	-2226.282
6.830	-1599.282
6.832	-992.282
6.834	-1770.282
6.836	-3631.282
6.838	-5026.282
6.840	-7678.282
6.842	-9737.282
6.844	-9711.282
6.846	-9487.282
6.848	-9808.282
6.850	-9378.282
6.852	-8499.282
6.854	-7251.282
6.856	-5142.282
6.858	-3888.282
6.860	-2604.282
6.862	-1541.282
6.864	-1641.282
6.866	-2131.282
6.868	-758.282
6.870	-494.282
6.872	-1911.282
6.874	-3109.282
6.876	-4059.282
6.878	-5962.282
6.880	-9788.282
6.882	-11540.282
6.884	-10979.282
6.886	-10398.282
6.888	-10008.282
6.890	-9220.282
6.892	-7601.282
6.894	-6078.282
6.896	-4047.282
6.898	-2838.282
6.900	-2619.282
6.902	-2477.282
6.904	-759.282
6.906	640.718
6.908	604.718
6.910	-523.282
6.912	-1704.282
6.914	-2603.282
6.916	-4933.282
6.918	-7058.282
6.920	-8358.282
6.922	-8470.282
6.924	-6112.282
6.926	-3786.282
6.928	-1991.282
6.930	274.718
6.932	4113.718
6.934	8144.718
6.936	11723.718
6.938	16167.718
6.940	20634.718
6.942	23310.718
6.944	25830.718
6.946	28442.718
6.948	30756.718
6.950	34103.718
6.952	36763.718
6.954	38943.718
6.956	39253.718
6.958	38283.718
6.960	36778.718
6.962	36579.718
6.964	34365.718
6.966	29463.718
6.968	25261.718
6.970	22042.718
6.972	20214.718
6.974	17865.718
6.976	14626.718
6.978	11123.718
6.980	8713.718
6.982	6992.718
6.984	7130.718
6.986	7629.718
6.988	6923.718
6.990	5511.718
6.992	4421.718
6.994	2721.718
6.996	-271.282
6.998	-4581.282
7.000	-8372.282
7.002	-7805.282
7.004	-8646.282
7.006	-10040.282
7.008	-11266.282
7.010	-11523.282
7.012	-10580.282
7.014	-9956.282
7.016	-8433.282
7.018	-6456.282
7.020	-4323.282
7.022	-3261.282
7.024	-3066.282
7.026	-3941.282
7.028	-3304.282
7.030	-2892.282
7.032	-3792.282
7.034	-4431.282
7.036	-6148.282
7.038	-8651.282
7.040	-9281.282
7.042	-7988.282
7.044	-9197.282
7.046	-9816.282
7.048	-9311.282
7.050	-8214.282
7.052	-6869.282
7.054	-5541.282
7.056	-4110.282
7.058	-2892.282
7.060	-1035.282
7.062	173.718
7.064	788.718
7.066	92.718
7.068	723.718
7.070	821.718
7.072	-814.282
7.074	-1634.282
7.076	-3726.282
7.078	-7572.282
7.080	-8813.282
7.082	-7886.282
7.084	-8982.282
7.086	-10783.282
7.088	-11346.282
7.090	-10693.282
7.092	-8333.282
7.094	-5797.282
7.096	-4888.282
7.098	-3486.282
7.100	-1471.282
7.102	10.718
7.104	230.718
7.106	268.718
7.108	351.718
7.110	-58.282
7.112	-643.282
7.114	-579.282
7.116	-2229.282
7.118	-6119.282
7.120	-7601.282
7.122	-6436.282
7.124	-7513.282
7.126	-7834.282
7.128	-7871.282
7.130	-7744.282
7.132	-7017.282
7.134	-5413.282
7.136	-3541.282
7.138	-1954.282
7.140	-1213.282
7.142	-211.282
7.144	525.718
7.146	733.718
7.148	670.718
7.150	100.718
7.152	-144.282
7.154	-1153.282
7.156	-3260.282
7.158	-6189.282
7.160	-7141.282
7.162	-6511.282
7.164	-7478.282
7.166	-8894.282
7.168	-8516.282
7.170	-7226.282
7.172	-5878.282
7.174	-3624.282
7.176	-1999.282
7.178	-240.282
7.180	1127.718
7.182	688.718
7.184	618.718
7.186	1554.718
7.188	2066.718
7.190	1463.718
7.192	104.718
7.194	-1208.282
7.196	-3733.282
7.198	-5739.282
7.200	-4598.282
7.202	-4866.282
7.204	-5730.282
7.206	-7418.282
7.208	-7893.282
7.210	-6329.282
7.212	-4772.282
7.214	-3803.282
7.216	-2369.282
7.218	-328.282
7.220	2260.718
7.222	3228.718
7.224	4114.718
7.226	3842.718
7.228	3242.718
7.230	2937.718
7.232	1455.718
7.234	490.718
7.236	-1599.282
7.238	-3090.282
7.240	-2749.282
7.242	-3166.282
7.244	-3558.282
7.246	-4305.282
7.248	-4792.282
7.250	-4435.282
7.252	-3506.282
7.254	-2389.282
7.256	328.718
7.258	2118.718
7.260	3548.718
7.262	4501.718
7.264	5141.718
7.266	5396.718
7.268	4579.718
7.270	4176.718
7.272	4414.718
7.274	3500.718
7.276	259.718
7.278	-2726.282
7.280	-2629.282
7.282	-2548.282
7.284	-3158.282
7.286	-3996.282
7.288	-3694.282
7.290	-2525.282
7.292	-1846.282
7.294	-1284.282
7.296	789.718
7.298	2426.718
7.300	3879.718
7.302	6261.718
7.304	7796.718
7.306	7075.718
7.308	7253.718
7.310	6830.718
7.312	5962.718
7.314	5583.718
7.316	3048.718
7.318	1580.718
7.320	1932.718
7.322	606.718
7.324	-344.282
7.326	568.718
7.328	817.718
7.330	771.718
7.332	1672.718
7.334	3083.718
7.336	4836.718
7.338	7068.718
7.340	8033.718
7.342	8569.718
7.344	10552.718
7.346	12463.718
7.348	11850.718
7.350	10298.718
7.352	10265.718
7.354	9900.718
7.356	6779.718
7.358	4808.718
7.360	4703.718
7.362	3843.718
7.364	3501.718
7.366	2960.718
7.368	3355.718
7.370	4329.718
7.372	4846.718
7.374	6133.718
7.376	7969.718
7.378	10566.718
7.380	13033.718
7.382	13914.718
7.384	13565.718
7.386	14166.718
7.388	14907.718
7.390	13819.718
7.392	12809.718
7.394	11000.718
7.396	9381.718
7.398	9207.718
7.400	6880.718
7.402	6056.718
7.404	6010.718
7.406	5778.718
7.408	6840.718
7.410	7360.718
7.412	7524.718
7.414	7711.718
7.416	9590.718
7.418	12483.718
7.420	14089.718
7.422	15096.718
7.424	15448.718
7.426	14591.718
7.428	13496.718
7.430	13290.718
7.432	13293.718
7.434	11981.718
7.436	9651.718
7.438	9453.718
7.440	7144.718
7.442	5675.718
7.444	4791.718
7.446	3976.718
7.448	3339.718
7.450	3675.718
7.452	5114.718
7.454	6418.718
7.456	6981.718
7.458	8551.718
7.460	10333.718
7.462	10918.718
7.464	10631.718
7.466	9980.718
7.468	8927.718
7.470	7621.718
7.472	7823.718
7.474	5493.718
7.476	2888.718
7.478	1855.718
7.480	293.718
7.482	-664.282
7.484	-2207.282
7.486	-3856.282
7.488	-4558.282
7.490	-3458.282
7.492	-1357.282
7.494	195.718
7.496	1544.718
7.498	3042.718
7.500	5089.718
7.502	5801.718
7.504	5406.718
7.506	4584.718
7.508	3273.718
7.510	1317.718
7.512	278.718
7.514	-1139.282
7.516	-2918.282
7.518	-3191.282
7.520	-4230.282
7.522	-6729.282
7.524	-8209.282
7.526	-7254.282
7.528	-6176.282
7.530	-6624.282
7.532	-7051.282
7.534	-5363.282
7.536	-3751.282
7.538	-1333.282
7.540	1277.718
7.542	1816.718
7.544	1984.718
7.546	2508.718
7.548	1284.718
7.550	-381.282
7.552	-1858.282
7.554	-3987.282
7.556	-4716.282
7.558	-5743.282
7.560	-8319.282
7.562	-9839.282
7.564	-10258.282
7.566	-10237.282
7.568	-9540.282
7.570	-6934.282
7.572	-6498.282
7.574	-6173.282
7.576	-4253.282
7.578	-1861.282
7.580	-852.282
7.582	-227.282
7.584	779.718
7.586	610.718
7.588	143.718
7.590	-156.282
7.592	-1988.282
7.594	-4361.282
7.596	-4931.282
7.598	-6724.282
7.600	-7521.282
7.602	-7468.282
7.604	-8040.282
7.606	-8713.282
7.608	-8640.282
7.610	-8137.282
7.612	-6676.282
7.614	-5711.282
7.616	-4506.282
7.618	-2387.282
7.620	-754.282
7.622	36.718
7.624	126.718
7.626	-419.282
7.628	-1238.282
7.630	-1156.282
7.632	-2318.282
7.634	-4124.282
7.636	-3931.282
7.638	-7288.282
7.640	-9504.282
7.642	-9822.282
7.644	-10859.282
7.646	-11028.282
7.648	-9476.282
7.650	-7192.282
7.652	-6529.282
7.654	-5572.282
7.656	-4317.282
7.658	-1974.282
7.660	-336.282
7.662	223.718
7.664	544.718
7.666	883.718
7.668	1031.718
7.670	-454.282
7.672	-3176.282
7.674	-4514.282
7.676	-5007.282
7.678	-7066.282
7.680	-8717.282
7.682	-9460.282
7.684	-10231.282
7.686	-10496.282
7.688	-9842.282
7.690	-8994.282
7.692	-7906.282
7.694	-5926.282
7.696	-4340.282
7.698	-2396.282
7.700	-1168.282
7.702	195.718
7.704	1136.718
7.706	1538.718
7.708	1038.718
7.710	-514.282
7.712	-2559.282
7.714	-4133.282
7.716	-4188.282
7.718	-6590.282
7.720	-8923.282
7.722	-9305.282
7.724	-9864.282
7.726	-10588.282
7.728	-11328.282
7.730	-10543.282
7.732	-7983.282
7.734	-5190.282
7.736	-4276.282
7.738	-3083.282
7.740	-1852.282
7.742	42.718
7.744	757.718
7.746	-36.282
7.748	-1344.282
7.750	-1662.282
7.752	-3320.282
7.754	-4436.282
7.756	-4839.282
7.758	-6636.282
7.760	-8437.282
7.762	-9196.282
7.764	-8606.282
7.766	-8080.282
7.768	-8273.282
7.770	-8121.282
7.772	-7621.282
7.774	-6559.282
7.776	-4814.282
7.778	-3363.282
7.780	-2014.282
7.782	-617.282
7.784	109.718
7.786	731.718
7.788	1163.718
7.790	-159.282
7.792	-2493.282
7.794	-4325.282
7.796	-4236.282
7.798	-5455.282
7.800	-6733.282
7.802	-8017.282
7.804	-9332.282
7.806	-9798.282
7.808	-9805.282
7.810	-9601.282
7.812	-9574.282
7.814	-6729.282
7.816	-3165.282
7.818	-1127.282
7.820	301.718
7.822	1189.718
7.824	1305.718
7.826	664.718
7.828	172.718
7.830	-948.282
7.832	-2504.282
7.834	-1898.282
7.836	-4011.282
7.838	-6821.282
7.840	-7924.282
7.842	-9462.282
7.844	-10446.282
7.846	-9896.282
7.848	-8694.282
7.850	-8298.282
7.852	-7706.282
7.854	-6614.282
7.856	-4451.282
7.858	-1688.282
7.860	-448.282
7.862	148.718
7.864	973.718
7.866	845.718
7.868	338.718
7.870	-1734.282
7.872	-3337.282
7.874	-2451.282
7.876	-3780.282
7.878	-6048.282
7.880	-7272.282
7.882	-7973.282
7.884	-8893.282
7.886	-10292.282
7.888	-10093.282
7.890	-8581.282
7.892	-8774.282
7.894	-8098.282
7.896	-4823.282
7.898	-2566.282
7.900	-1749.282
7.902	-1079.282
7.904	-761.282
7.906	-5.282
7.908	601.718
7.910	-2328.282
7.912	-3762.282
7.914	-2904.282
7.916	-3416.282
7.918	-5931.282
7.920	-6899.282
7.922	-7372.282
7.924	-8504.282
7.926	-9235.282
7.928	-10407.282
7.930	-10208.282
7.932	-6529.282
7.934	-4159.282
7.936	-2943.282
7.938	-663.282
7.940	6.718
7.942	181.718
7.944	429.718
7.946	380.718
7.948	-746.282
7.950	-2510.282
7.952	-2109.282
7.954	-2306.282
7.956	-4216.282
7.958	-6079.282
7.960	-6908.282
7.962	-7218.282
7.964	-7569.282
7.966	-8231.282
7.968	-8509.282
7.970	-7793.282
7.972	-6931.282
7.974	-4791.282
7.976	-1681.282
7.978	1361.718
7.980	2235.718
7.982	2948.718
7.984	4304.718
7.986	3842.718
7.988	2956.718
7.990	131.718
7.992	-1820.282
7.994	-1459.282
7.996	-1404.282
7.998	-2530.282
8.000	-4299.282
8.002	-5798.282
8.004	-5994.282
8.006	-6261.282
8.008	-6229.282
8.010	-5651.282
8.012	-4990.282
8.014	-2924.282
8.016	-24.282
8.018	1657.718
8.020	2758.718
8.022	3048.718
8.024	3073.718
8.026	2602.718
8.028	1929.718
8.030	872.718
8.032	2248.718
8.034	1122.718
8.036	-794.282
8.038	-3435.282
8.040	-5259.282
8.042	-6866.282
8.044	-8640.282
8.046	-9183.282
8.048	-8976.282
8.050	-8049.282
8.052	-6453.282
8.054	-4575.282
8.056	-2503.282
8.058	-683.282
8.060	252.718
8.062	487.718
8.064	136.718
8.066	-569.282
8.068	-1915.282
8.070	-2564.282
8.072	-1631.282
8.074	-2983.282
8.076	-4937.282
8.078	-7072.282
8.080	-8533.282
8.082	-9089.282
8.084	-8864.282
8.086	-9824.282
8.088	-10499.282
8.090	-8679.282
8.092	-7963.282
8.094	-6443.282
8.096	-4756.282
8.098	-3961.282
8.100	-2619.282
8.102	-847.282
8.104	-393.282
8.106	58.718
8.108	-799.282
8.110	-1393.282
8.112	-1254.282
8.114	-3031.282
8.116	-5905.282
8.118	-8511.282
8.120	-8639.282
8.122	-9748.282
8.124	-10089.282
8.126	-10575.282
8.128	-11058.282
8.130	-9241.282
8.132	-6230.282
8.134	-5135.282
8.136	-3673.282
8.138	-1686.282
8.140	-1150.282
8.142	-986.282
8.144	-1000.282
8.146	-1025.282
8.148	-2219.282
8.150	-3478.282
8.152	-2516.282
8.154	-2872.282
8.156	-5563.282
8.158	-9000.282
8.160	-9463.282
8.162	-10031.282
8.164	-12511.282
8.166	-13534.282
8.168	-12435.282
8.170	-9328.282
8.172	-7059.282
8.174	-5366.282
8.176	-3427.282
8.178	-2035.282
8.180	-1179.282
8.182	1023.718
8.184	1980.718
8.186	2685.718
8.188	2904.718
8.190	4024.718
8.192	7590.718
8.194	8617.718
8.196	8759.718
8.198	9313.718
8.200	10457.718
8.202	11864.718
8.204	13990.718
8.206	16145.718
8.208	20023.718
8.210	24973.718
8.212	28208.718
8.214	32422.718
8.216	36228.718
8.218	40452.718
8.220	43973.718
8.222	46563.718
8.224	48171.718
8.226	46644.718
8.228	41345.718
8.230	37155.718
8.232	31957.718
8.234	26103.718
8.236	21171.718
8.238	15547.718
8.240	8865.718
8.242	3101.718
8.244	-369.282
8.246	-2356.282
8.248	-3423.282
8.250	-2547.282
8.252	-1826.282
8.254	-889.282
8.256	148.718
8.258	635.718
8.260	-112.282
8.262	-1094.282
8.264	-1078.282
8.266	-1378.282
8.268	-1456.282
8.270	-1605.282
8.272	-4061.282
8.274	-6524.282
8.276	-8336.282
8.278	-10322.282
8.280	-12079.282
8.282	-12779.282
8.284	-13662.282
8.286	-14213.282
8.288	-13201.282
8.290	-11699.282
8.292	-10512.282
8.294	-8611.282
8.296	-5672.282
8.298	-3396.282
8.300	-2973.282
8.302	-2886.282
8.304	-3003.282
8.306	-3176.282
8.308	-3269.282
8.310	-2532.282
8.312	-2712.282
8.314	-3776.282
8.316	-5059.282
8.318	-6966.282
8.320	-8821.282
8.322	-10241.282
8.324	-11163.282
8.326	-10397.282
8.328	-8941.282
8.330	-7456.282
8.332	-6164.282
8.334	-4418.282
8.336	-3068.282
8.338	-1351.282
8.340	-41.282
8.342	-59.282
8.344	75.718
8.346	-56.282
8.348	-1059.282
8.350	-556.282
8.352	-1434.282
8.354	-3768.282
8.356	-5977.282
8.358	-8759.282
8.360	-9523.282
8.362	-9232.282
8.364	-9363.282
8.366	-8755.282
8.368	-7837.282
8.370	-6792.282
8.372	-5662.282
8.374	-4350.282
8.376	-3003.282
8.378	-1114.282
8.380	-279.282
8.382	-173.282
8.384	-321.282
8.386	-508.282
8.388	37.718
8.390	100.718
8.392	-2007.282
8.394	-4166.282
8.396	-5643.282
8.398	-7114.282
8.400	-7550.282
8.402	-7682.282
8.404	-7606.282
8.406	-7211.282
8.408	-5806.282
8.410	-5054.282
8.412	-4932.282
8.414	-3289.282
8.416	-1990.282
8.418	287.718
8.420	1922.718
8.422	2603.718
8.424	2307.718
8.426	736.718
8.428	484.718
8.430	1670.718
8.432	717.718
8.434	-1403.282
8.436	-3926.282
8.438	-5423.282
8.440	-5925.282
8.442	-6761.282
8.444	-7479.282
8.446	-7227.282
8.448	-6986.282
8.450	-6276.282
8.452	-5878.282
8.454	-3928.282
8.456	-1688.282
8.458	488.718
8.460	2028.718
8.462	2329.718
8.464	1492.718
8.466	1241.718
8.468	3052.718
8.470	1571.718
8.472	-78.282
8.474	-1359.282
8.476	-2728.282
8.478	-4059.282
8.480	-4924.282
8.482	-5897.282
8.484	-6626.282
8.486	-7559.282
8.488	-7461.282
8.490	-5941.282
8.492	-3903.282
8.494	-1579.282
8.496	115.718
8.498	1221.718
8.500	1870.718
8.502	3784.718
8.504	3681.718
8.506	3255.718
8.508	4388.718
8.510	3338.718
8.512	1588.718
8.514	-28.282
8.516	-1807.282
8.518	-4425.282
8.520	-5573.282
8.522	-5094.282
8.524	-5576.282
8.526	-4944.282
8.528	-3029.282
8.530	-2017.282
8.532	-1484.282
8.534	-774.282
8.536	666.718
8.538	2908.718
8.540	4406.718
8.542	5192.718
8.544	4054.718
8.546	3662.718
8.548	6368.718
8.550	7018.718
8.552	5463.718
8.554	3381.718
8.556	1398.718
8.558	30.718
8.560	-866.282
8.562	-1618.282
8.564	-1979.282
8.566	-2005.282
8.568	-1867.282
8.570	-316.282
8.572	940.718
8.574	2138.718
8.576	4176.718
8.578	5945.718
8.580	6443.718
8.582	7771.718
8.584	7805.718
8.586	7196.718
8.588	8701.718
8.590	9138.718
8.592	8101.718
8.594	6513.718
8.596	4796.718
8.598	3676.718
8.600	2735.718
8.602	1183.718
8.604	86.718
8.606	40.718
8.608	1692.718
8.610	3446.718
8.612	3811.718
8.614	4481.718
8.616	6742.718
8.618	10261.718
8.620	12131.718
8.622	12470.718
8.624	11806.718
8.626	12405.718
8.628	13322.718
8.630	12195.718
8.632	11071.718
8.634	9468.718
8.636	7848.718
8.638	6393.718
8.640	5214.718
8.642	4085.718
8.644	3873.718
8.646	3905.718
8.648	4586.718
8.650	6703.718
8.652	8478.718
8.654	9449.718
8.656	11127.718
8.658	12540.718
8.660	13306.718
8.662	13676.718
8.664	12661.718
8.666	14977.718
8.668	14708.718
8.670	12235.718
8.672	10795.718
8.674	10298.718
8.676	8474.718
8.678	6351.718
8.680	6337.718
8.682	6169.718
8.684	6060.718
8.686	5884.718
8.688	6484.718
8.690	7600.718
8.692	8166.718
8.694	10408.718
8.696	12264.718
8.698	13279.718
8.700	13515.718
8.702	12563.718
8.704	11995.718
8.706	13324.718
8.708	13163.718
8.710	11900.718
8.712	10492.718
8.714	8408.718
8.716	6561.718
8.718	4489.718
8.720	2451.718
8.722	1061.718
8.724	637.718
8.726	612.718
8.728	613.718
8.730	139.718
8.732	-757.282
8.734	275.718
8.736	2630.718
8.738	5359.718
8.740	8156.718
8.742	8369.718
8.744	8963.718
8.746	10190.718
8.748	7985.718
8.750	5028.718
8.752	3236.718
8.754	1886.718
8.756	-255.282
8.758	-2509.282
8.760	-4313.282
8.762	-5503.282
8.764	-5781.282
8.766	-4578.282
8.768	-3567.282
8.770	-2873.282
8.772	-1825.282
8.774	-735.282
8.776	910.718
8.778	1915.718
8.780	2830.718
8.782	3000.718
8.784	2369.718
8.786	2663.718
8.788	2227.718
8.790	1331.718
8.792	-98.282
8.794	-3251.282
8.796	-5193.282
8.798	-6764.282
8.800	-8001.282
8.802	-7350.282
8.804	-7409.282
8.806	-8426.282
8.808	-8386.282
8.810	-7066.282
8.812	-5474.282
8.814	-3985.282
8.816	-1734.282
8.818	900.718
8.820	586.718
8.822	-999.282
8.824	-582.282
8.826	636.718
8.828	-766.282
8.830	-2292.282
8.832	-2904.282
8.834	-3923.282
8.836	-6889.282
8.838	-9498.282
8.840	-9641.282
8.842	-9981.282
8.844	-10128.282
8.846	-10036.282
8.848	-8762.282
8.850	-7792.282
8.852	-6575.282
8.854	-4206.282
8.856	-1966.282
8.858	-318.282
8.860	-156.282
8.862	-931.282
8.864	940.718
8.866	1087.718
8.868	-156.282
8.870	-1843.282
8.872	-3359.282
8.874	-4668.282
8.876	-6302.282
8.878	-8238.282
8.880	-9273.282
8.882	-9582.282
8.884	-10249.282
8.886	-10609.282
8.888	-9943.282
8.890	-8926.282
8.892	-7653.282
8.894	-5863.282
8.896	-4044.282
8.898	-2289.282
8.900	-2422.282
8.902	-1969.282
8.904	-3.282
8.906	-588.282
8.908	-1829.282
8.910	-2403.282
8.912	-3248.282
8.914	-4633.282
8.916	-6169.282
8.918	-6851.282
8.920	-7871.282
8.922	-9731.282
8.924	-10357.282
8.926	-10406.282
8.928	-9906.282
8.930	-9220.282
8.932	-7691.282
8.934	-5301.282
8.936	-3051.282
8.938	-1389.282
8.940	-2578.282
8.942	-2218.282
8.944	-19.282
8.946	-150.282
8.948	-1409.282
8.950	-1676.282
8.952	-2193.282
8.954	-4978.282
8.956	-7393.282
8.958	-8615.282
8.960	-9637.282
8.962	-10496.282
8.964	-10373.282
8.966	-10794.282
8.968	-8867.282
8.970	-5788.282
8.972	-5230.282
8.974	-3881.282
8.976	-1899.282
8.978	-744.282
8.980	-886.282
8.982	-158.282
8.984	521.718
8.986	630.718
8.988	260.718
8.990	-1779.282
8.992	-3193.282
8.994	-4228.282
8.996	-5481.282
8.998	-7147.282
9.000	-8003.282
9.002	-9289.282
9.004	-10486.282
9.006	-10031.282
9.008	-8051.282
9.010	-6425.282
9.012	-5714.282
9.014	-4671.282
9.016	-2759.282
9.018	-961.282
9.020	-1093.282
9.022	-1123.282
9.024	63.718
9.026	-173.282
9.028	-372.282
9.030	-1502.282
9.032	-2885.282
9.034	-4031.282
9.036	-6484.282
9.038	-8536.282
9.040	-9428.282
9.042	-9472.282
9.044	-9191.282
9.046	-9361.282
9.048	-8829.282
9.050	-7296.282
9.052	-5514.282
9.054	-3346.282
9.056	-1788.282
9.058	-805.282
9.060	-1291.282
9.062	-312.282
9.064	1691.718
9.066	814.718
9.068	-1704.282
9.070	-2351.282
9.072	-2443.282
9.074	-3416.282
9.076	-4574.282
9.078	-5845.282
9.080	-7379.282
9.082	-8824.282
9.084	-8583.282
9.086	-8563.282
9.088	-8064.282
9.090	-6646.282
9.092	-5816.282
9.094	-4670.282
9.096	-2881.282
9.098	-1699.282
9.100	-1842.282
9.102	-234.282
9.104	-891.282
9.106	-684.282
9.108	-571.282
9.110	-1649.282
9.112	-2814.282
9.114	-4091.282
9.116	-6384.282
9.118	-6821.282
9.120	-7863.282
9.122	-9932.282
9.124	-10157.282
9.126	-9244.282
9.128	-6966.282
9.130	-5633.282
9.132	-5759.282
9.134	-4173.282
9.136	-1959.282
9.138	-1935.282
9.140	-869.282
9.142	540.718
9.144	333.718
9.146	727.718
9.148	-401.282
9.150	-2428.282
9.152	-4101.282
9.154	-5044.282
9.156	-5369.282
9.158	-5850.282
9.160	-8252.282
9.162	-9751.282
9.164	-9583.282
9.166	-8148.282
9.168	-6738.282
9.170	-6149.282
9.172	-5449.282
9.174	-3614.282
9.176	-1240.282
9.178	-483.282
9.180	5.718
9.182	1025.718
9.184	1808.718
9.186	2228.718
9.188	808.718
9.190	-1009.282
9.192	-2489.282
9.194	-4614.282
9.196	-7346.282
9.198	-8739.282
9.200	-9048.282
9.202	-8290.282
9.204	-8508.282
9.206	-9897.282
9.208	-9186.282
9.210	-7935.282
9.212	-7554.282
9.214	-4998.282
9.216	-1646.282
9.218	-1119.282
9.220	128.718
9.222	1959.718
9.224	2194.718
9.226	647.718
9.228	-1158.282
9.230	-2411.282
9.232	-2688.282
9.234	-3696.282
9.236	-5735.282
9.238	-6739.282
9.240	-7069.282
9.242	-7325.282
9.244	-7953.282
9.246	-8203.282
9.248	-7763.282
9.250	-7099.282
9.252	-5916.282
9.254	-4003.282
9.256	-2418.282
9.258	-1449.282
9.260	430.718
9.262	2388.718
9.264	2568.718
9.266	2052.718
9.268	52.718
9.270	-874.282
9.272	-745.282
9.274	-2164.282
9.276	-3933.282
9.278	-5092.282
9.280	-6568.282
9.282	-7763.282
9.284	-7255.282
9.286	-6133.282
9.288	-4450.282
9.290	-3263.282
9.292	-2329.282
9.294	-1824.282
9.296	-1190.282
9.298	-1425.282
9.300	2286.718
9.302	4193.718
9.304	4254.718
9.306	3503.718
9.308	1774.718
9.310	-234.282
9.312	-1067.282
9.314	-1618.282
9.316	-2829.282
9.318	-3449.282
9.320	-5510.282
9.322	-8430.282
9.324	-9018.282
9.326	-7824.282
9.328	-5826.282
9.330	-4897.282
9.332	-3204.282
9.334	-396.282
9.336	596.718
9.338	826.718
9.340	2417.718
9.342	2424.718
9.344	1933.718
9.346	1601.718
9.348	834.718
9.350	-551.282
9.352	-3298.282
9.354	-5373.282
9.356	-6999.282
9.358	-6514.282
9.360	-5027.282
9.362	-5231.282
9.364	-6473.282
9.366	-7787.282
9.368	-7572.282
9.370	-7221.282
9.372	-6164.282
9.374	-3964.282
9.376	-3053.282
9.378	-2205.282
9.380	395.718
9.382	1741.718
9.384	1515.718
9.386	864.718
9.388	-814.282
9.390	-2438.282
9.392	-3909.282
9.394	-4868.282
9.396	-6353.282
9.398	-7932.282
9.400	-9498.282
9.402	-10418.282
9.404	-11131.282
9.406	-10821.282
9.408	-8899.282
9.410	-7134.282
9.412	-6174.282
9.414	-5645.282
9.416	-4548.282
9.418	-2206.282
9.420	69.718
9.422	941.718
9.424	370.718
9.426	260.718
9.428	-186.282
9.430	-2343.282
9.432	-4754.282
9.434	-6528.282
9.436	-7968.282
9.438	-8326.282
9.440	-8616.282
9.442	-9874.282
9.444	-10802.282
9.446	-10003.282
9.448	-8951.282
9.450	-8234.282
9.452	-6819.282
9.454	-5980.282
9.456	-5459.282
9.458	-4373.282
9.460	-2039.282
9.462	-268.282
9.464	694.718
9.466	1495.718
9.468	524.718
9.470	-1090.282
9.472	-3268.282
9.474	-5561.282
9.476	-6739.282
9.478	-7288.282
9.480	-7680.282
9.482	-7924.282
9.484	-6608.282
9.486	-4758.282
9.488	-1703.282
9.490	2010.718
9.492	5737.718
9.494	8900.718
9.496	11211.718
9.498	16486.718
9.500	20670.718
9.502	23926.718
9.504	27031.718
9.506	28924.718
9.508	30597.718
9.510	32613.718
9.512	33505.718
9.514	34464.718
9.516	35313.718
9.518	36113.718
9.520	35996.718
9.522	35090.718
9.524	33541.718
9.526	30216.718
9.528	27476.718
9.530	25962.718
9.532	24638.718
9.534	21073.718
9.536	16387.718
9.538	13838.718
9.540	10513.718
9.542	8163.718
9.544	6345.718
9.546	4898.718
9.548	3285.718
9.550	1651.718
9.552	-352.282
9.554	-1895.282
9.556	-4880.282
9.558	-7286.282
9.560	-9748.282
9.562	-11084.282
9.564	-11459.282
9.566	-11468.282
9.568	-9969.282
9.570	-7939.282
9.572	-5668.282
9.574	-6098.282
9.576	-5942.282
9.578	-3874.282
9.580	-3269.282
9.582	-3433.282
9.584	-2714.282
9.586	-2804.282
9.588	-4692.282
9.590	-5478.282
9.592	-6629.282
9.594	-7696.282
9.596	-9992.282
9.598	-11175.282
9.600	-11274.282
9.602	-11487.282
9.604	-11528.282
9.606	-10831.282
9.608	-9269.282
9.610	-7738.282
9.612	-6542.282
9.614	-4998.282
9.616	-3042.282
9.618	-354.282
9.620	746.718
9.622	535.718
9.624	146.718
9.626	-359.282
9.628	-828.282
9.630	-2563.282
9.632	-4487.282
9.634	-5129.282
9.636	-6560.282
9.638	-7501.282
9.640	-7756.282
9.642	-8288.282
9.644	-8666.282
9.646	-8680.282
9.648	-8066.282
9.650	-7528.282
9.652	-6376.282
9.654	-5553.282
9.656	-2236.282
9.658	1025.718
9.660	1441.718
9.662	1277.718
9.664	624.718
9.666	363.718
9.668	-27.282
9.670	-904.282
9.672	-2865.282
9.674	-4609.282
9.676	-5789.282
9.678	-6753.282
9.680	-8852.282
9.682	-10211.282
9.684	-9259.282
9.686	-8367.282
9.688	-7788.282
9.690	-6167.282
9.692	-4023.282
9.694	-3417.282
9.696	-1725.282
9.698	667.718
9.700	1192.718
9.702	1903.718
9.704	2626.718
9.706	1682.718
9.708	102.718
9.710	-1893.282
9.712	-3924.282
9.714	-4009.282
9.716	-5020.282
9.718	-5744.282
9.720	-6933.282
9.722	-7929.282
9.724	-7765.282
9.726	-6696.282
9.728	-6031.282
9.730	-4684.282
9.732	-4400.282
9.734	-4605.282
9.736	-274.282
9.738	1829.718
9.740	2436.718
9.742	2775.718
9.744	2655.718
9.746	1168.718
9.748	-133.282
9.750	-193.282
9.752	-896.282
9.754	-2101.282
9.756	-2686.282
9.758	-3642.282
9.760	-5321.282
9.762	-6900.282
9.764	-7054.282
9.766	-5966.282
9.768	-4076.282
9.770	-3159.282
9.772	-2837.282
9.774	-1622.282
9.776	1536.718
9.778	2995.718
9.780	3603.718
9.782	4210.718
9.784	4516.718
9.786	3855.718
9.788	2584.718
9.790	1838.718
9.792	955.718
9.794	-970.282
9.796	-3781.282
9.798	-6377.282
9.800	-6944.282
9.802	-5953.282
9.804	-4807.282
9.806	-4181.282
9.808	-4689.282
9.810	-4349.282
9.812	-2301.282
9.814	-3.282
9.816	3571.718
9.818	4884.718
9.820	5091.718
9.822	4919.718
9.824	5056.718
9.826	5906.718
9.828	4831.718
9.830	3138.718
9.832	1751.718
9.834	53.718
9.836	-1346.282
9.838	-2180.282
9.840	-3032.282
9.842	-4106.282
9.844	-3855.282
9.846	-2286.282
9.848	-598.282
9.850	-82.282
9.852	-238.282
9.854	1473.718
9.856	5873.718
9.858	7505.718
9.860	6880.718
9.862	7285.718
9.864	8052.718
9.866	7851.718
9.868	6575.718
9.870	5589.718
9.872	3599.718
9.874	1983.718
9.876	452.718
9.878	-543.282
9.880	-820.282
9.882	-568.282
9.884	26.718
9.886	396.718
9.888	1465.718
9.890	2478.718
9.892	2992.718
9.894	5056.718
9.896	8785.718
9.898	10648.718
9.900	10705.718
9.902	10765.718
9.904	10225.718
9.906	10675.718
9.908	10510.718
9.910	9639.718
9.912	7855.718
9.914	5531.718
9.916	3248.718
9.918	2801.718
9.920	2635.718
9.922	3063.718
9.924	4039.718
9.926	3961.718
9.928	3905.718
9.930	4430.718
9.932	5900.718
9.934	9675.718
9.936	13005.718
9.938	14081.718
9.940	14453.718
9.942	14400.718
9.944	14268.718
9.946	13901.718
9.948	13766.718
9.950	13441.718
9.952	11734.718
9.954	8483.718
9.956	6507.718
9.958	6140.718
9.960	5623.718
9.962	5585.718
9.964	5198.718
9.966	5810.718
9.968	8572.718
9.970	9181.718
9.972	10013.718
9.974	13364.718
9.976	14933.718
9.978	14676.718
9.980	15551.718
9.982	16031.718
9.984	15185.718
9.986	13895.718
9.988	13209.718
9.990	12906.718
9.992	11016.718
9.994	8997.718
9.996	7483.718
9.998	6517.718
10.000	5295.718
10.002	4351.718
10.004	3890.718
10.006	4578.718
10.008	5830.718
10.010	5356.718
10.012	6236.718
10.014	8847.718
10.016	11567.718
10.018	13007.718
10.020	13060.718
10.022	12312.718
10.024	12085.718
10.026	10580.718
10.028	8725.718
10.030	8246.718
10.032	5888.718
10.034	2504.718
10.036	810.718
10.038	878.718
10.040	520.718
10.042	-897.282
10.044	-833.282
10.046	-391.282
10.048	-214.282
10.050	-1258.282
10.052	-370.282
10.054	2891.718
10.056	3893.718
10.058	4318.718
10.060	5491.718
10.062	5434.718
10.064	4647.718
10.066	3871.718
10.068	4183.718
10.070	3728.718
10.072	1575.718
10.074	-1358.282
10.076	-3671.282
10.078	-4793.282
10.080	-5913.282
10.082	-7024.282
10.084	-7401.282
10.086	-6484.282
10.088	-4677.282
10.090	-5016.282
10.092	-4095.282
10.094	-871.282
10.096	1943.718
10.098	2243.718
10.100	2363.718
10.102	3146.718
10.104	3187.718
10.106	2062.718
10.108	351.718
10.110	-1996.282
10.112	-3503.282
10.114	-5728.282
10.116	-6883.282
10.118	-6099.282
10.120	-5808.282
10.122	-7046.282
10.124	-8102.282
10.126	-7793.282
10.128	-6662.282
10.130	-5413.282
10.132	-2706.282
10.134	-1516.282
10.136	-396.282
10.138	1058.718
10.140	2041.718
10.142	2398.718
10.144	2189.718
10.146	656.718
10.148	-432.282
10.150	-1342.282
10.152	-3164.282
10.154	-5213.282
10.156	-6966.282
10.158	-7826.282
10.160	-8756.282
10.162	-9570.282
10.164	-10063.282
10.166	-9086.282
10.168	-7705.282
10.170	-6414.282
10.172	-4223.282
10.174	-3424.282
10.176	-2291.282
10.178	-927.282
10.180	189.718
10.182	1510.718
10.184	2056.718
10.186	948.718
10.188	-1292.282
10.190	-1555.282
10.192	-2739.282
10.194	-4944.282
10.196	-6818.282
10.198	-8288.282
10.200	-8729.282
10.202	-7996.282
10.204	-7571.282
10.206	-7846.282
10.208	-9426.282
10.210	-8796.282
10.212	-4219.282
10.214	-1356.282
10.216	-834.282
10.218	-610.282
10.220	-569.282
10.222	115.718
10.224	515.718
10.226	-649.282
10.228	-1828.282
10.230	-2242.282
10.232	-3710.282
10.234	-4891.282
10.236	-6171.282
10.238	-7679.282
10.240	-8591.282
10.242	-8998.282
10.244	-8794.282
10.246	-8556.282
10.248	-8591.282
10.250	-7845.282
10.252	-4365.282
10.254	-1198.282
10.256	-448.282
10.258	280.718
10.260	1862.718
10.262	1425.718
10.264	201.718
10.266	-586.282
10.268	-1041.282
10.270	-1039.282
10.272	-2979.282
10.274	-6158.282
10.276	-7713.282
10.278	-7676.282
10.280	-8601.282
10.282	-9229.282
10.284	-9168.282
10.286	-8583.282
10.288	-8944.282
10.290	-7159.282
10.292	-3873.282
10.294	-1648.282
10.296	369.718
10.298	445.718
10.300	662.718
10.302	1063.718
10.304	593.718
10.306	-644.282
10.308	-2687.282
10.310	-3211.282
10.312	-2331.282
10.314	-3396.282
10.316	-6058.282
10.318	-7654.282
10.320	-8159.282
10.322	-8153.282
10.324	-8181.282
10.326	-6657.282
10.328	-7238.282
10.330	-6398.282
10.332	-2745.282
10.334	-1406.282
10.336	-98.282
10.338	982.718
10.340	1488.718
10.342	1330.718
10.344	1093.718
10.346	323.718
10.348	-1179.282
10.350	-2103.282
10.352	-3365.282
10.354	-5263.282
10.356	-7404.282
10.358	-7978.282
10.360	-8668.282
10.362	-8838.282
10.364	-7891.282
10.366	-7389.282
10.368	-6705.282
10.370	-3566.282
10.372	-1877.282
10.374	-56.282
10.376	1176.718
10.378	1005.718
10.380	938.718
10.382	885.718
10.384	1196.718
10.386	73.718
10.388	-1019.282
10.390	-1688.282
10.392	-3322.282
10.394	-5678.282
10.396	-6887.282
10.398	-6819.282
10.400	-7099.282
10.402	-7694.282
10.404	-8038.282
10.406	-9379.282
10.408	-8789.282
10.410	-4989.282
10.412	-1835.282
10.414	-90.282
10.416	-114.282
10.418	97.718
10.420	1725.718
10.422	1859.718
10.424	1418.718
10.426	384.718
10.428	-619.282
10.430	-1686.282
10.432	-2845.282
10.434	-5266.282
10.436	-7284.282
10.438	-6616.282
10.440	-6736.282
10.442	-7995.282
10.444	-8209.282
10.446	-7849.282
10.448	-7263.282
10.450	-5795.282
10.452	-3504.282
10.454	-1446.282
10.456	-1011.282
10.458	321.718
10.460	2062.718
10.462	2078.718
10.464	712.718
10.466	-73.282
10.468	1095.718
10.470	-141.282
10.472	-3397.282
10.474	-5053.282
10.476	-6178.282
10.478	-6795.282
10.480	-7779.282
10.482	-8928.282
10.484	-9128.282
10.486	-9203.282
10.488	-7409.282
10.490	-4380.282
10.492	-2529.282
10.494	-1328.282
10.496	120.718
10.498	1320.718
10.500	1181.718
10.502	761.718
10.504	1448.718
10.506	455.718
10.508	-861.282
10.510	-2143.282
10.512	-4488.282
10.514	-5590.282
10.516	-6316.282
10.518	-6820.282
10.520	-7779.282
10.522	-8304.282
10.524	-8533.282
10.526	-8928.282
10.528	-8296.282
10.530	-4853.282
10.532	-3023.282
10.534	-2358.282
10.536	-660.282
10.538	507.718
10.540	1861.718
10.542	1436.718
10.544	-702.282
10.546	-1413.282
10.548	-1431.282
10.550	-2095.282
10.552	-3381.282
10.554	-5393.282
10.556	-6051.282
10.558	-5670.282
10.560	-6276.282
10.562	-6987.282
10.564	-9276.282
10.566	-9951.282
10.568	-5603.282
10.570	-3275.282
10.572	-3210.282
10.574	-2103.282
10.576	-638.282
10.578	-31.282
10.580	416.718
10.582	1203.718
10.584	1273.718
10.586	116.718
10.588	-1263.282
10.590	-2153.282
10.592	-3535.282
10.594	-5379.282
10.596	-6306.282
10.598	-6159.282
10.600	-7102.282
10.602	-8114.282
10.604	-9108.282
10.606	-8272.282
10.608	-4741.282
10.610	-2965.282
10.612	-1919.282
10.614	-1652.282
10.616	-46.282
10.618	1721.718
10.620	2590.718
10.622	3189.718
10.624	3628.718
10.626	2580.718
10.628	1921.718
10.630	343.718
10.632	-821.282
10.634	-2378.282
10.636	-3571.282
10.638	-4374.282
10.640	-5988.282
10.642	-6958.282
10.644	-7669.282
10.646	-6769.282
10.648	-3754.282
10.650	-1792.282
10.652	-419.282
10.654	1244.718
10.656	3298.718
10.658	4610.718
10.660	5199.718
10.662	4817.718
10.664	4004.718
10.666	2503.718
10.668	932.718
10.670	-411.282
10.672	80.718
10.674	-741.282
10.676	-3364.282
10.678	-5553.282
10.680	-5717.282
10.682	-5630.282
10.684	-6643.282
10.686	-5479.282
10.688	-2579.282
10.690	-1923.282
10.692	-686.282
10.694	1706.718
10.696	3065.718
10.698	3311.718
10.700	3306.718
10.702	3390.718
10.704	2804.718
10.706	1005.718
10.708	-237.282
10.710	-1047.282
10.712	-2366.282
10.714	-4766.282
10.716	-6529.282
10.718	-7483.282
10.720	-8366.282
10.722	-9182.282
10.724	-10232.282
10.726	-9289.282
10.728	-6076.282
10.730	-4058.282
10.732	-3161.282
10.734	-1861.282
10.736	-1047.282
10.738	-155.282
10.740	1491.718
10.742	1886.718
10.744	576.718
10.746	-633.282
10.748	-1361.282
10.750	-2368.282
10.752	-4198.282
10.754	-6291.282
10.756	-7113.282
10.758	-7786.282
10.760	-9012.282
10.762	-10242.282
10.764	-11177.282
10.766	-8209.282
10.768	-6912.282
10.770	-6006.282
10.772	-3703.282
10.774	-646.282
10.776	171.718
10.778	461.718
10.780	961.718
10.782	1050.718
10.784	554.718
10.786	-1102.282
10.788	-2626.282
10.790	-4352.282
10.792	-5621.282
10.794	-5514.282
10.796	-5059.282
10.798	-6365.282
10.800	-8465.282
10.802	-10769.282
10.804	-10717.282
10.806	-6921.282
10.808	-6039.282
10.810	-5789.282
10.812	-3773.282
10.814	-539.282
10.816	1400.718
10.818	1715.718
10.820	1773.718
10.822	1204.718
10.824	566.718
10.826	-641.282
10.828	-2136.282
10.830	-3199.282
10.832	-3967.282
10.834	-5107.282
10.836	-5412.282
10.838	-5243.282
10.840	-4461.282
10.842	-4589.282
10.844	-2474.282
10.846	4193.718
10.848	7879.718
10.850	10093.718
10.852	13065.718
10.854	18297.718
10.856	23136.718
10.858	27502.718
10.860	31163.718
10.862	33403.718
10.864	35530.718
10.866	35824.718
10.868	36472.718
10.870	37831.718
10.872	38719.718
10.874	39076.718
10.876	39551.718
10.878	37988.718
10.880	33858.718
10.882	28218.718
10.884	24545.718
10.886	22904.718
10.888	20115.718
10.890	16799.718
10.892	13756.718
10.894	11393.718
10.896	9155.718
10.898	7096.718
10.900	7946.718
10.902	9826.718
10.904	9025.718
10.906	6848.718
10.908	4463.718
10.910	1126.718
10.912	-1782.282
10.914	-5116.282
10.916	-5899.282
10.918	-6175.282
10.920	-7579.282
10.922	-9508.282
10.924	-9586.282
10.926	-7005.282
10.928	-5798.282
10.930	-5729.282
10.932	-4624.282
10.934	-3037.282
10.936	-2366.282
10.938	-2795.282
10.940	-3173.282
10.942	-1971.282
10.944	-1044.282
10.946	-1512.282
10.948	-2068.282
10.950	-3432.282
10.952	-5342.282
10.954	-6271.282
10.956	-7791.282
10.958	-8742.282
10.960	-8236.282
10.962	-8685.282
10.964	-6863.282
10.966	-6356.282
10.968	-6039.282
10.970	-4636.282
10.972	-2476.282
10.974	-533.282
10.976	318.718
10.978	409.718
10.980	1322.718
10.982	1465.718
10.984	660.718
10.986	143.718
10.988	-757.282
10.990	-2706.282
10.992	-3498.282
10.994	-4349.282
10.996	-5151.282
10.998	-6883.282
11.000	-9471.282
11.002	-11092.282
11.004	-8666.282
11.006	-7511.282
11.008	-6861.282
11.010	-5474.282
11.012	-3361.282
11.014	-878.282
11.016	1290.718
11.018	3473.718
11.020	3581.718
11.022	3429.718
11.024	2734.718
11.026	1346.718
11.028	313.718
11.030	-1669.282
11.032	-3913.282
11.034	-5193.282
11.036	-5444.282
11.038	-6193.282
11.040	-8421.282
11.042	-9213.282
11.044	-6918.282
11.046	-5757.282
11.048	-5380.282
11.050	-4172.282
11.052	-2449.282
11.054	818.718
11.056	1976.718
11.058	1986.718
11.060	3458.718
11.062	4153.718
11.064	3790.718
11.066	2316.718
11.068	803.718
11.070	-767.282
11.072	-2083.282
11.074	-3580.282
11.076	-4916.282
11.078	-6051.282
11.080	-8373.282
11.082	-7931.282
11.084	-5287.282
11.086	-3718.282
11.088	-2909.282
11.090	-2116.282
11.092	-898.282
11.094	1465.718
11.096	2521.718
11.098	2757.718
11.100	2107.718
11.102	1567.718
11.104	1829.718
11.106	1987.718
11.108	2091.718
11.110	1666.718
11.112	135.718
11.114	-2026.282
11.116	-3699.282
11.118	-5029.282
11.120	-6419.282
11.122	-6213.282
11.124	-5111.282
11.126	-4693.282
11.128	-3565.282
11.130	-843.282
11.132	1750.718
11.134	3340.718
11.136	3528.718
11.138	3942.718
11.140	4944.718
11.142	5037.718
11.144	4221.718
11.146	2328.718
11.148	957.718
11.150	-828.282
11.152	-1258.282
11.154	-1601.282
11.156	-2335.282
11.158	-2805.282
11.160	-4901.282
11.162	-5720.282
11.164	-3332.282
11.166	-2318.282
11.168	-2283.282
11.170	-1194.282
11.172	1608.718
11.174	4359.718
11.176	5233.718
11.178	5307.718
11.180	6333.718
11.182	7738.718
11.184	7262.718
11.186	5229.718
11.188	3605.718
11.190	3430.718
11.192	2703.718
11.194	362.718
11.196	-1282.282
11.198	-2679.282
11.200	-4239.282
11.202	-3209.282
11.204	-2784.282
11.206	-254.282
11.208	1360.718
11.210	2147.718
11.212	4710.718
11.214	6718.718
11.216	7314.718
11.218	8844.718
11.220	9650.718
11.222	8909.718
11.224	8326.718
11.226	7625.718
11.228	6816.718
11.230	5016.718
11.232	3619.718
11.234	2158.718
11.236	2101.718
11.238	488.718
11.240	-671.282
11.242	1198.718
11.244	1894.718
11.246	2646.718
11.248	3583.718
11.250	5460.718
11.252	8215.718
11.254	9943.718
11.256	10693.718
11.258	11983.718
11.260	12787.718
11.262	12804.718
11.264	12411.718
11.266	10355.718
11.268	9252.718
11.270	8835.718
11.272	7964.718
11.274	6489.718
11.276	5196.718
11.278	3931.718
11.280	3641.718
11.282	4922.718
11.284	5080.718
11.286	5226.718
11.288	6365.718
11.290	9235.718
11.292	11474.718
11.294	13719.718
11.296	14451.718
11.298	14550.718
11.300	14976.718
11.302	14659.718
11.304	14530.718
11.306	14190.718
11.308	13279.718
11.310	12835.718
11.312	12121.718
11.314	10025.718
11.316	8035.718
11.318	5680.718
11.320	5631.718
11.322	7097.718
11.324	7076.718
11.326	8043.718
11.328	9644.718
11.330	12011.718
11.332	13880.718
11.334	15001.718
11.336	16064.718
11.338	17407.718
11.340	17704.718
11.342	17055.718
11.344	16146.718
11.346	14588.718
11.348	13164.718
11.350	12070.718
11.352	10275.718
11.354	8355.718
11.356	7595.718
11.358	5641.718
11.360	4817.718
11.362	6067.718
11.364	7135.718
11.366	7866.718
11.368	7966.718
11.370	9098.718
11.372	11249.718
11.374	12829.718
11.376	13483.718
11.378	13448.718
11.380	11983.718
11.382	10821.718
11.384	9948.718
11.386	9089.718
11.388	9282.718
11.390	9093.718
11.392	6263.718
11.394	3470.718
11.396	1625.718
11.398	-1032.282
11.400	-1549.282
11.402	-1129.282
11.404	1124.718
11.406	2223.718
11.408	1896.718
11.410	2520.718
11.412	3525.718
11.414	4959.718
11.416	6239.718
11.418	7156.718
11.420	7140.718
11.422	6678.718
11.424	5840.718
11.426	3858.718
11.428	1878.718
11.430	1699.718
11.432	-136.282
11.434	-3301.282
11.436	-5573.282
11.438	-5958.282
11.440	-5028.282
11.442	-5624.282
11.444	-4130.282
11.446	-2518.282
11.448	-2394.282
11.450	-1686.282
11.452	-156.282
11.454	1577.718
11.456	2126.718
11.458	3645.718
11.460	4148.718
11.462	3637.718
11.464	3084.718
11.466	1721.718
11.468	273.718
11.470	-1821.282
11.472	-3788.282
11.474	-5867.282
11.476	-8188.282
11.478	-8423.282
11.480	-6929.282
11.482	-7368.282
11.484	-6751.282
11.486	-5269.282
11.488	-4449.282
11.490	-2233.282
11.492	-207.282
11.494	964.718
11.496	1670.718
11.498	2298.718
11.500	2170.718
11.502	2104.718
11.504	1811.718
11.506	318.718
11.508	-1176.282
11.510	-3313.282
11.512	-4899.282
11.514	-6449.282
11.516	-8386.282
11.518	-8617.282
11.520	-6963.282
11.522	-7726.282
11.524	-9138.282
11.526	-7931.282
11.528	-5128.282
11.530	-2484.282
11.532	-1496.282
11.534	-202.282
11.536	1886.718
11.538	3068.718
11.540	2768.718
11.542	1130.718
11.544	-19.282
11.546	-627.282
11.548	-1609.282
11.550	-2942.282
11.552	-4496.282
11.554	-5672.282
11.556	-7638.282
11.558	-8318.282
11.560	-7514.282
11.562	-6876.282
11.564	-6248.282
11.566	-4886.282
11.568	-4181.282
11.570	-3632.282
11.572	-1443.282
11.574	531.718
11.576	1704.718
11.578	1975.718
11.580	1646.718
11.582	968.718
11.584	423.718
11.586	57.718
11.588	-932.282
11.590	-2086.282
11.592	-4361.282
11.594	-6305.282
11.596	-7000.282
11.598	-5931.282
11.600	-7184.282
11.602	-7928.282
11.604	-7007.282
11.606	-5949.282
11.608	-4218.282
11.610	-3073.282
11.612	-1642.282
11.614	524.718
11.616	1643.718
11.618	2541.718
11.620	2475.718
11.622	2048.718
11.624	975.718
11.626	-666.282
11.628	-1083.282
11.630	-1976.282
11.632	-4189.282
11.634	-7176.282
11.636	-8304.282
11.638	-7246.282
11.640	-7483.282
11.642	-8181.282
11.644	-8044.282
11.646	-6717.282
11.648	-5164.282
11.650	-3810.282
11.652	-2150.282
11.654	343.718
11.656	1090.718
11.658	1842.718
11.660	2822.718
11.662	2215.718
11.664	511.718
11.666	-1152.282
11.668	-2490.282
11.670	-3586.282
11.672	-4919.282
11.674	-7289.282
11.676	-7980.282
11.678	-6795.282
11.680	-6536.282
11.682	-6837.282
11.684	-6985.282
11.686	-6168.282
11.688	-5326.282
11.690	-3114.282
11.692	-750.282
11.694	865.718
11.696	971.718
11.698	964.718
11.700	1468.718
11.702	2170.718
11.704	1676.718
11.706	263.718
11.708	-1816.282
11.710	-3527.282
11.712	-4484.282
11.714	-7400.282
11.716	-8204.282
11.718	-7134.282
11.720	-7603.282
11.722	-7598.282
11.724	-6164.282
11.726	-4604.282
11.728	-3891.282
11.730	-3271.282
11.732	-1496.282
11.734	1024.718
11.736	2516.718
11.738	2476.718
11.740	1761.718
11.742	753.718
11.744	-759.282
11.746	-439.282
11.748	-315.282
11.750	-1705.282
11.752	-4987.282
11.754	-7844.282
11.756	-8118.282
11.758	-6848.282
11.760	-6901.282
11.762	-7929.282
11.764	-8022.282
11.766	-5741.282
11.768	-3894.282
11.770	-1303.282
11.772	670.718
11.774	1845.718
11.776	2983.718
11.778	3124.718
11.780	1768.718
11.782	1560.718
11.784	1883.718
11.786	1001.718
11.788	-126.282
11.790	-1768.282
11.792	-4018.282
11.794	-6797.282
11.796	-7538.282
11.798	-6722.282
11.800	-6634.282
11.802	-6543.282
11.804	-6127.282
11.806	-5705.282
11.808	-4884.282
11.810	-3005.282
11.812	-542.282
11.814	1096.718
11.816	448.718
11.818	736.718
11.820	2491.718
11.822	2016.718
11.824	788.718
11.826	295.718
11.828	-1678.282
11.830	-3627.282
11.832	-5424.282
11.834	-7531.282
11.836	-6170.282
11.838	-6631.282
11.840	-6892.282
11.842	-7893.282
11.844	-7572.282
11.846	-5873.282
11.848	-4315.282
11.850	-2094.282
11.852	-116.282
11.854	1773.718
11.856	2776.718
11.858	2604.718
11.860	1317.718
11.862	929.718
11.864	288.718
11.866	-756.282
11.868	-1929.282
11.870	-3221.282
11.872	-5704.282
11.874	-7369.282
11.876	-6940.282
11.878	-8091.282
11.880	-8153.282
11.882	-7468.282
11.884	-6191.282
11.886	-5306.282
11.888	-4276.282
11.890	-3108.282
11.892	-1697.282
11.894	-611.282
11.896	433.718
11.898	1318.718
11.900	1463.718
11.902	1629.718
11.904	1020.718
11.906	-336.282
11.908	-1178.282
11.910	-2130.282
11.912	-4471.282
11.914	-6640.282
11.916	-6599.282
11.918	-6717.282
11.920	-6331.282
11.922	-6413.282
11.924	-6364.282
11.926	-6090.282
11.928	-5173.282
11.930	-2595.282
11.932	13.718
11.934	926.718
11.936	1604.718
11.938	1865.718
11.940	925.718
11.942	1233.718
11.944	517.718
11.946	-276.282
11.948	-641.282
11.950	-2508.282
11.952	-5387.282
11.954	-6643.282
11.956	-6118.282
11.958	-6171.282
11.960	-6151.282
11.962	-5555.282
11.964	-4933.282
11.966	-4623.282
11.968	-3859.282
11.970	-2763.282
11.972	-951.282
11.974	136.718
11.976	29.718
11.978	871.718
11.980	1686.718
11.982	1357.718
11.984	100.718
11.986	-876.282
11.988	-1563.282
11.990	-2899.282
11.992	-5601.282
11.994	-6309.282
11.996	-4856.282
11.998	-6039.282
12.000	-7532.282
12.002	-7461.282
12.004	-6230.282
12.006	-5813.282
12.008	-4991.282
12.010	-2731.282
12.012	-554.282
12.014	533.718
12.016	2195.718
12.018	2651.718
12.020	2702.718
12.022	2164.718
12.024	1037.718
12.026	194.718
12.028	-364.282
12.030	-2782.282
12.032	-6161.282
12.034	-4901.282
12.036	-4606.282
12.038	-5784.282
12.040	-6029.282
12.042	-5289.282
12.044	-3192.282
12.046	-2380.282
12.048	-1829.282
12.050	-202.282
12.052	1771.718
12.054	3203.718
12.056	3535.718
12.058	4207.718
12.060	4355.718
12.062	3968.718
12.064	3188.718
12.066	3056.718
12.068	2072.718
12.070	-991.282
12.072	-3364.282
12.074	-3403.282
12.076	-3999.282
12.078	-5076.282
12.080	-5826.282
12.082	-4554.282
12.084	-2872.282
12.086	-2668.282
12.088	-1247.282
12.090	-479.282
12.092	185.718
12.094	1520.718
12.096	2793.718
12.098	4408.718
12.100	5633.718
12.102	5543.718
12.104	3419.718
12.106	1509.718
12.108	923.718
12.110	-1023.282
12.112	-3038.282
12.114	-3718.282
12.116	-5583.282
12.118	-6004.282
12.120	-5519.282
12.122	-5568.282
12.124	-5049.282
12.126	-4681.282
12.128	-3493.282
12.130	-1518.282
12.132	453.718
12.134	1602.718
12.136	1950.718
12.138	2190.718
12.140	1851.718
12.142	1642.718
12.144	350.718
12.146	-2088.282
12.148	-2729.282
12.150	-3994.282
12.152	-6291.282
12.154	-5956.282
12.156	-5948.282
12.158	-6759.282
12.160	-7934.282
12.162	-8037.282
12.164	-6943.282
12.166	-4837.282
12.168	-3223.282
12.170	-1688.282
12.172	-137.282
12.174	601.718
12.176	1211.718
12.178	1525.718
12.180	1487.718
12.182	1550.718
12.184	876.718
12.186	-189.282
12.188	-1559.282
12.190	-3875.282
12.192	-5710.282
12.194	-5624.282
12.196	-6468.282
12.198	-7750.282
12.200	-8551.282
12.202	-8036.282
12.204	-7144.282
12.206	-6575.282
12.208	-5134.282
12.210	-3460.282
12.212	-2206.282
12.214	-905.282
12.216	289.718
12.218	1037.718
12.220	1051.718
12.222	1138.718
12.224	420.718
12.226	-785.282
12.228	-2713.282
12.230	-5600.282
12.232	-5365.282
12.234	-6242.282
12.236	-6920.282
12.238	-7557.282
12.240	-8035.282
12.242	-7118.282
12.244	-5644.282
12.246	-5195.282
12.248	-4203.282
12.250	-1778.282
12.252	1285.718
12.254	4387.718
12.256	7368.718
12.258	10798.718
12.260	12643.718
12.262	13171.718
12.264	14109.718
12.266	15821.718
12.268	16933.718
12.270	18956.718
12.272	21450.718
12.274	21729.718
12.276	23271.718
12.278	25460.718
12.280	28760.718
12.282	32003.718
12.284	34668.718
12.286	36986.718
12.288	39770.718
12.290	43238.718
12.292	44625.718
12.294	42712.718
12.296	38553.718
12.298	35164.718
12.300	31856.718
12.302	26793.718
12.304	19823.718
12.306	13470.718
12.308	8538.718
12.310	6051.718
12.312	4094.718
12.314	1576.718
12.316	-553.282
12.318	-2269.282
12.320	-2555.282
12.322	-1759.282
12.324	-1819.282
12.326	-3050.282
12.328	-4001.282
12.330	-3113.282
12.332	-1384.282
12.334	226.718
12.336	1366.718
12.338	1426.718
12.340	1390.718
12.342	558.718
12.344	-1488.282
12.346	-3617.282
12.348	-5849.282
12.350	-7330.282
12.352	-8854.282
12.354	-9453.282
12.356	-10100.282
12.358	-11309.282
12.360	-11576.282
12.362	-10292.282
12.364	-7604.282
12.366	-5823.282
12.368	-4524.282
12.370	-3068.282
12.372	-1258.282
12.374	406.718
12.376	1266.718
12.378	2387.718
12.380	2786.718
12.382	2297.718
12.384	830.718
12.386	106.718
12.388	-2151.282
12.390	-4519.282
12.392	-4805.282
12.394	-5266.282
12.396	-7584.282
12.398	-8974.282
12.400	-8330.282
12.402	-7208.282
12.404	-5910.282
12.406	-5473.282
12.408	-4061.282
12.410	-2269.282
12.412	535.718
12.414	2462.718
12.416	2312.718
12.418	2068.718
12.420	1843.718
12.422	720.718
12.424	-329.282
12.426	-733.282
12.428	-2243.282
12.430	-2484.282
12.432	-3036.282
12.434	-4694.282
12.436	-5931.282
12.438	-6579.282
12.440	-6716.282
12.442	-7104.282
12.444	-6843.282
12.446	-5678.282
12.448	-3781.282
12.450	-2071.282
12.452	-336.282
12.454	1355.718
12.456	3603.718
12.458	4606.718
12.460	3784.718
12.462	2135.718
12.464	-264.282
12.466	-2736.282
12.468	-4423.282
12.470	-3158.282
12.472	-3146.282
12.474	-3268.282
12.476	-4579.282
12.478	-5395.282
12.480	-6400.282
12.482	-6699.282
12.484	-5594.282
12.486	-4707.282
12.488	-2578.282
12.490	283.718
12.492	2196.718
12.494	3130.718
12.496	3338.718
12.498	3661.718
12.500	3385.718
12.502	2401.718
12.504	2515.718
12.506	1914.718
12.508	907.718
12.510	334.718
12.512	-1930.282
12.514	-3808.282
12.516	-4637.282
12.518	-5748.282
12.520	-6547.282
12.522	-5863.282
12.524	-4876.282
12.526	-3103.282
12.528	-1787.282
12.530	-749.282
12.532	1643.718
12.534	4105.718
12.536	4707.718
12.538	4023.718
12.540	3810.718
12.542	3961.718
12.544	3964.718
12.546	3241.718
12.548	813.718
12.550	37.718
12.552	-1423.282
12.554	-3953.282
12.556	-6253.282
12.558	-5096.282
12.560	-3369.282
12.562	-3614.282
12.564	-3153.282
12.566	-2052.282
12.568	-24.282
12.570	2006.718
12.572	3970.718
12.574	4708.718
12.576	4743.718
12.578	6117.718
12.580	7402.718
12.582	7378.718
12.584	5436.718
12.586	2509.718
12.588	293.718
12.590	58.718
12.592	-604.282
12.594	-1093.282
12.596	-1748.282
12.598	-2248.282
12.600	-2263.282
12.602	-1929.282
12.604	-398.282
12.606	921.718
12.608	2293.718
12.610	3543.718
12.612	5220.718
12.614	6184.718
12.616	6849.718
12.618	7470.718
12.620	8080.718
12.622	7417.718
12.624	5459.718
12.626	3238.718
12.628	2471.718
12.630	3358.718
12.632	1997.718
12.634	856.718
12.636	446.718
12.638	-6.282
12.640	-337.282
12.642	71.718
12.644	1888.718
12.646	3608.718
12.648	4618.718
12.650	5938.718
12.652	8182.718
12.654	9451.718
12.656	9911.718
12.658	9956.718
12.660	10328.718
12.662	10523.718
12.664	8285.718
12.666	7105.718
12.668	8162.718
12.670	6550.718
12.672	5058.718
12.674	4174.718
12.676	3343.718
12.678	3688.718
12.680	3521.718
12.682	3588.718
12.684	4376.718
12.686	5573.718
12.688	8002.718
12.690	10080.718
12.692	11695.718
12.694	12766.718
12.696	13188.718
12.698	14182.718
12.700	14014.718
12.702	13723.718
12.704	12533.718
12.706	11858.718
12.708	12758.718
12.710	10385.718
12.712	8445.718
12.714	7163.718
12.716	6500.718
12.718	5034.718
12.720	4913.718
12.722	7478.718
12.724	8997.718
12.726	9175.718
12.728	10111.718
12.730	12421.718
12.732	15009.718
12.734	16594.718
12.736	17226.718
12.738	17271.718
12.740	17151.718
12.742	16522.718
12.744	14904.718
12.746	14169.718
12.748	14085.718
12.750	12667.718
12.752	10418.718
12.754	8515.718
12.756	7398.718
12.758	6938.718
12.760	7822.718
12.762	8409.718
12.764	8910.718
12.766	9697.718
12.768	11268.718
12.770	12808.718
12.772	14187.718
12.774	14525.718
12.776	14926.718
12.778	15344.718
12.780	14568.718
12.782	13762.718
12.784	12025.718
12.786	11594.718
12.788	11316.718
12.790	9226.718
12.792	6356.718
12.794	5171.718
12.796	3663.718
12.798	3093.718
12.800	3560.718
12.802	3555.718
12.804	3766.718
12.806	4889.718
12.808	5425.718
12.810	7589.718
12.812	9702.718
12.814	9910.718
12.816	10246.718
12.818	10751.718
12.820	10091.718
12.822	8508.718
12.824	5900.718
12.826	4624.718
12.828	3939.718
12.830	2606.718
12.832	1020.718
12.834	-641.282
12.836	-2368.282
12.838	-4240.282
12.840	-4641.282
12.842	-3531.282
12.844	-2366.282
12.846	-1513.282
12.848	-753.282
12.850	1219.718
12.852	3531.718
12.854	4419.718
12.856	4928.718
12.858	5137.718
12.860	4782.718
12.862	3248.718
12.864	571.718
12.866	1010.718
12.868	-4.282
12.870	-1948.282
12.872	-3883.282
12.874	-4988.282
12.876	-6688.282
12.878	-7537.282
12.880	-8052.282
12.882	-6933.282
12.884	-4619.282
12.886	-3826.282
12.888	-3802.282
12.890	-3032.282
12.892	-203.282
12.894	1835.718
12.896	3194.718
12.898	4178.718
12.900	4100.718
12.902	1520.718
12.904	-1436.282
12.906	-474.282
12.908	-930.282
12.910	-2928.282
12.912	-5004.282
12.914	-6223.282
12.916	-7087.282
12.918	-7705.282
12.920	-7394.282
12.922	-6767.282
12.924	-5523.282
12.926	-4345.282
12.928	-3546.282
12.930	-1936.282
12.932	-413.282
12.934	551.718
12.936	2287.718
12.938	3658.718
12.940	3020.718
12.942	769.718
12.944	-18.282
12.946	1351.718
12.948	-353.282
12.950	-3043.282
12.952	-4842.282
12.954	-6327.282
12.956	-7958.282
12.958	-8954.282
12.960	-9074.282
12.962	-7931.282
12.964	-6164.282
12.966	-5153.282
12.968	-4859.282
12.970	-2915.282
12.972	1139.718
12.974	4240.718
12.976	4131.718
12.978	3586.718
12.980	2345.718
12.982	-308.282
12.984	-1309.282
12.986	-676.282
12.988	-1994.282
12.990	-4077.282
12.992	-4242.282
12.994	-4727.282
12.996	-5949.282
12.998	-7038.282
13.000	-7810.282
13.002	-6915.282
13.004	-5306.282
13.006	-4663.282
13.008	-3043.282
13.010	-588.282
13.012	1242.718
13.014	2218.718
13.016	2634.718
13.018	2961.718
13.020	2265.718
13.022	-172.282
13.024	-1504.282
13.026	-177.282
13.028	-1703.282
13.030	-3733.282
13.032	-5252.282
13.034	-5949.282
13.036	-7130.282
13.038	-7888.282
13.040	-8308.282
13.042	-8061.282
13.044	-6310.282
13.046	-4811.282
13.048	-2177.282
13.050	-373.282
13.052	1151.718
13.054	2135.718
13.056	2159.718
13.058	2528.718
13.060	2262.718
13.062	840.718
13.064	192.718
13.066	241.718
13.068	-1447.282
13.070	-3548.282
13.072	-5370.282
13.074	-6647.282
13.076	-7416.282
13.078	-8205.282
13.080	-8863.282
13.082	-8164.282
13.084	-6338.282
13.086	-4368.282
13.088	-2737.282
13.090	-1199.282
13.092	1454.718
13.094	2258.718
13.096	2580.718
13.098	2211.718
13.100	590.718
13.102	-283.282
13.104	1136.718
13.106	165.718
13.108	-1558.282
13.110	-3654.282
13.112	-5104.282
13.114	-5549.282
13.116	-6549.282
13.118	-7040.282
13.120	-7729.282
13.122	-6998.282
13.124	-5214.282
13.126	-3930.282
13.128	-2503.282
13.130	-641.282
13.132	981.718
13.134	1439.718
13.136	2262.718
13.138	2895.718
13.140	1371.718
13.142	611.718
13.144	645.718
13.146	-514.282
13.148	-2498.282
13.150	-3879.282
13.152	-5184.282
13.154	-5579.282
13.156	-5899.282
13.158	-6615.282
13.160	-6549.282
13.162	-5411.282
13.164	-4115.282
13.166	-3576.282
13.168	-2605.282
13.170	-1181.282
13.172	113.718
13.174	1658.718
13.176	2378.718
13.178	1760.718
13.180	1353.718
13.182	1226.718
13.184	1908.718
13.186	1341.718
13.188	-1878.282
13.190	-5474.282
13.192	-5926.282
13.194	-5676.282
13.196	-6205.282
13.198	-6384.282
13.200	-7083.282
13.202	-6739.282
13.204	-6806.282
13.206	-4586.282
13.208	-2231.282
13.210	-508.282
13.212	1601.718
13.214	2736.718
13.216	2975.718
13.218	2400.718
13.220	660.718
13.222	122.718
13.224	968.718
13.226	1226.718
13.228	136.718
13.230	-1915.282
13.232	-4274.282
13.234	-6668.282
13.236	-6963.282
13.238	-6465.282
13.240	-6035.282
13.242	-5013.282
13.244	-4224.282
13.246	-2948.282
13.248	-2455.282
13.250	-1611.282
13.252	370.718
13.254	1198.718
13.256	1203.718
13.258	2218.718
13.260	2271.718
13.262	1550.718
13.264	1579.718
13.266	847.718
13.268	-1395.282
13.270	-3953.282
13.272	-6434.282
13.274	-7039.282
13.276	-6923.282
13.278	-7111.282
13.280	-7454.282
13.282	-6784.282
13.284	-5662.282
13.286	-4294.282
13.288	-1991.282
13.290	116.718
13.292	852.718
13.294	1875.718
13.296	3193.718
13.298	2363.718
13.300	765.718
13.302	1743.718
13.304	1033.718
13.306	-771.282
13.308	-2404.282
13.310	-3679.282
13.312	-5849.282
13.314	-7172.282
13.316	-8159.282
13.318	-8144.282
13.320	-7247.282
13.322	-5614.282
13.324	-4223.282
13.326	-2952.282
13.328	-1678.282
13.330	-555.282
13.332	1275.718
13.334	2665.718
13.336	3155.718
13.338	2053.718
13.340	1349.718
13.342	2042.718
13.344	1189.718
13.346	362.718
13.348	-1413.282
13.350	-3982.282
13.352	-5758.282
13.354	-6886.282
13.356	-7590.282
13.358	-7189.282
13.360	-6309.282
13.362	-4839.282
13.364	-3828.282
13.366	-2706.282
13.368	-2212.282
13.370	-849.282
13.372	1491.718
13.374	2486.718
13.376	2979.718
13.378	1885.718
13.380	1310.718
13.382	1772.718
13.384	556.718
13.386	-821.282
13.388	-2013.282
13.390	-3624.282
13.392	-4611.282
13.394	-5671.282
13.396	-7039.282
13.398	-6914.282
13.400	-6187.282
13.402	-5095.282
13.404	-4204.282
13.406	-3513.282
13.408	-1569.282
13.410	154.718
13.412	1025.718
13.414	1652.718
13.416	1953.718
13.418	405.718
13.420	623.718
13.422	2120.718
13.424	1878.718
13.426	-209.282
13.428	-1265.282
13.430	-2172.282
13.432	-3266.282
13.434	-4865.282
13.436	-5874.282
13.438	-6215.282
13.440	-6007.282
13.442	-4841.282
13.444	-3061.282
13.446	-1649.282
13.448	-203.282
13.450	1756.718
13.452	3655.718
13.454	4329.718
13.456	4654.718
13.458	3836.718
13.460	3591.718
13.462	3938.718
13.464	2850.718
13.466	1155.718
13.468	-350.282
13.470	-278.282
13.472	-925.282
13.474	-1747.282
13.476	-3770.282
13.478	-4939.282
13.480	-4000.282
13.482	-3118.282
13.484	-3219.282
13.486	-1617.282
13.488	1798.718
13.490	3710.718
13.492	4328.718
13.494	5225.718
13.496	5216.718
13.498	4035.718
13.500	5646.718
13.502	5297.718
13.504	4085.718
13.506	3087.718
13.508	1542.718
13.510	975.718
13.512	-694.282
13.514	-3490.282
13.516	-5011.282
13.518	-4632.282
13.520	-4212.282
13.522	-4684.282
13.524	-4119.282
13.526	-3293.282
13.528	-1657.282
13.530	1044.718
13.532	2777.718
13.534	2856.718
13.536	1938.718
13.538	1715.718
13.540	3431.718
13.542	1661.718
13.544	-344.282
13.546	-1764.282
13.548	-2929.282
13.550	-4655.282
13.552	-6531.282
13.554	-6723.282
13.556	-6556.282
13.558	-6437.282
13.560	-6256.282
13.562	-4879.282
13.564	-4419.282
13.566	-4003.282
13.568	-2623.282
13.570	-268.282
13.572	1488.718
13.574	2914.718
13.576	2128.718
13.578	1510.718
13.580	1860.718
13.582	1448.718
13.584	1291.718
13.586	-777.282
13.588	-3004.282
13.590	-4612.282
13.592	-4745.282
13.594	-4848.282
13.596	-6186.282
13.598	-7334.282
13.600	-7409.282
13.602	-6785.282
13.604	-5589.282
13.606	-4029.282
13.608	-2127.282
13.610	-273.282
13.612	889.718
13.614	2583.718
13.616	2052.718
13.618	1288.718
13.620	1948.718
13.622	782.718
13.624	-157.282
13.626	-702.282
13.628	-2483.282
13.630	-4361.282
13.632	-6153.282
13.634	-6805.282
13.636	-7548.282
13.638	-7740.282
13.640	-6837.282
13.642	-5029.282
13.644	-3446.282
13.646	-2350.282
13.648	-726.282
13.650	1197.718
13.652	2090.718
13.654	2828.718
13.656	2470.718
13.658	4026.718
13.660	7466.718
13.662	8292.718
13.664	9400.718
13.666	10668.718
13.668	10491.718
13.670	10221.718
13.672	12238.718
13.674	15684.718
13.676	18440.718
13.678	20126.718
13.680	22224.718
13.682	25866.718
13.684	30301.718
13.686	34953.718
13.688	38803.718
13.690	42788.718
13.692	46834.718
13.694	48271.718
13.696	48119.718
13.698	47673.718
13.700	43510.718
13.702	38470.718
13.704	33942.718
13.706	29355.718
13.708	22995.718
13.710	15398.718
13.712	9262.718
13.714	3486.718
13.716	-170.282
13.718	-1524.282
13.720	-1731.282
13.722	-1189.282
13.724	-279.282
13.726	1023.718
13.728	1607.718
13.730	932.718
13.732	734.718
13.734	-267.282
13.736	-356.282
13.738	2121.718
13.740	2738.718
13.742	1104.718
13.744	-565.282
13.746	-2526.282
13.748	-5140.282
13.750	-7641.282
13.752	-9632.282
13.754	-10467.282
13.756	-10748.282
13.758	-10887.282
13.760	-10291.282
13.762	-9443.282
13.764	-8726.282
13.766	-7917.282
13.768	-5431.282
13.770	-2364.282
13.772	-795.282
13.774	-975.282
13.776	-533.282
13.778	1623.718
13.780	1841.718
13.782	177.718
13.784	-238.282
13.786	-652.282
13.788	-1684.282
13.790	-3941.282
13.792	-6381.282
13.794	-7039.282
13.796	-7543.282
13.798	-8046.282
13.800	-6899.282
13.802	-5373.282
13.804	-5080.282
13.806	-3508.282
13.808	-1494.282
13.810	1011.718
13.812	3640.718
13.814	3535.718
13.816	3192.718
13.818	4175.718
13.820	3204.718
13.822	940.718
13.824	66.718
13.826	-119.282
13.828	-1314.282
13.830	-3136.282
13.832	-5099.282
13.834	-5736.282
13.836	-5999.282
13.838	-6566.282
13.840	-6058.282
13.842	-4354.282
13.844	-2666.282
13.846	-918.282
13.848	1017.718
13.850	2484.718
13.852	2710.718
13.854	1746.718
13.856	1616.718
13.858	2472.718
13.860	1754.718
13.862	868.718
13.864	1079.718
13.866	391.718
13.868	-1300.282
13.870	-2753.282
13.872	-3501.282
13.874	-4796.282
13.876	-6552.282
13.878	-6081.282
13.880	-3818.282
13.882	-2068.282
13.884	-2319.282
13.886	-1939.282
13.888	-913.282
13.890	1480.718
13.892	3193.718
13.894	2930.718
13.896	4738.718
13.898	6610.718
13.900	6552.718
13.902	4808.718
13.904	3151.718
13.906	1766.718
13.908	453.718
13.910	-934.282
13.912	-2493.282
13.914	-3771.282
13.916	-4613.282
13.918	-4434.282
13.920	-3755.282
13.922	-2761.282
13.924	-1699.282
13.926	-345.282
13.928	918.718
13.930	3020.718
13.932	3426.718
13.934	2934.718
13.936	4688.718
13.938	4639.718
13.940	4520.718
13.942	4363.718
13.944	3956.718
13.946	2243.718
13.948	143.718
13.950	-2736.282
13.952	-4522.282
13.954	-4611.282
13.956	-3658.282
13.958	-3573.282
13.960	-2091.282
13.962	-539.282
13.964	183.718
13.966	1458.718
13.968	2598.718
13.970	3938.718
13.972	3888.718
13.974	5696.718
13.976	7785.718
13.978	7529.718
13.980	6190.718
13.982	4372.718
13.984	4309.718
13.986	3719.718
13.988	2075.718
13.990	-240.282
13.992	-1229.282
13.994	-1609.282
13.996	-1787.282
13.998	-1615.282
14.000	-2268.282
14.002	-1803.282
14.004	-123.282
14.006	1708.718
14.008	2516.718
14.010	4560.718
14.012	6067.718
14.014	7510.718
14.016	9403.718
14.018	9446.718
14.020	8943.718
14.022	7400.718
14.024	5719.718
14.026	5364.718
14.028	4228.718
14.030	2534.718
14.032	2778.718
14.034	3430.718
14.036	1698.718
14.038	30.718
14.040	561.718
14.042	2390.718
14.044	3475.718
14.046	4169.718
14.048	5483.718
14.050	7984.718
14.052	8956.718
14.054	11063.718
14.056	13868.718
14.058	13409.718
14.060	12023.718
14.062	10629.718
14.064	10030.718
14.066	8925.718
14.068	7207.718
14.070	5542.718
14.072	5648.718
14.074	4198.718
14.076	2996.718
14.078	2698.718
14.080	3559.718
14.082	4689.718
14.084	6042.718
14.086	8419.718
14.088	10453.718
14.090	12228.718
14.092	12260.718
14.094	14193.718
14.096	16363.718
14.098	16107.718
14.100	15106.718
14.102	13829.718
14.104	12781.718
14.106	10733.718
14.108	9345.718
14.110	8410.718
14.112	7711.718
14.114	6893.718
14.116	6016.718
14.118	5416.718
14.120	5393.718
14.122	7160.718
14.124	10428.718
14.126	12901.718
14.128	14144.718
14.130	14785.718
14.132	15748.718
14.134	18695.718
14.136	18673.718
14.138	17560.718
14.140	16644.718
14.142	15816.718
14.144	14493.718
14.146	12576.718
14.148	11573.718
14.150	11148.718
14.152	9991.718
14.154	8549.718
14.156	8256.718
14.158	8212.718
14.160	8294.718
14.162	9889.718
14.164	11011.718
14.166	12256.718
14.168	13716.718
14.170	13652.718
14.172	14005.718
14.174	16686.718
14.176	17570.718
14.178	16832.718
14.180	15166.718
14.182	13677.718
14.184	13308.718
14.186	13080.718
14.188	11633.718
14.190	8689.718
14.192	7103.718
14.194	6201.718
14.196	4080.718
14.198	3891.718
14.200	5228.718
14.202	6496.718
14.204	6135.718
14.206	7056.718
14.208	8893.718
14.210	9258.718
14.212	9533.718
14.214	11703.718
14.216	11760.718
14.218	12165.718
14.220	11690.718
14.222	9068.718
14.224	6250.718
14.226	4360.718
14.228	3141.718
14.230	2423.718
14.232	1229.718
14.234	-363.282
14.236	-608.282
14.238	-918.282
14.240	-858.282
14.242	67.718
14.244	1035.718
14.246	2167.718
14.248	3885.718
14.250	3788.718
14.252	4353.718
14.254	6044.718
14.256	5928.718
14.258	5664.718
14.260	5269.718
14.262	4331.718
14.264	3361.718
14.266	1732.718
14.268	-133.282
14.270	-1374.282
14.272	-2289.282
14.274	-3849.282
14.276	-5076.282
14.278	-4843.282
14.280	-4387.282
14.282	-4311.282
14.284	-3697.282
14.286	-1994.282
14.288	178.718
14.290	1532.718
14.292	2637.718
14.294	3916.718
14.296	3924.718
14.298	3417.718
14.300	2733.718
14.302	2418.718
14.304	1447.718
14.306	-661.282
14.308	-3121.282
14.310	-4485.282
14.312	-4668.282
14.314	-6079.282
14.316	-6646.282
14.318	-6435.282
14.320	-5848.282
14.322	-5313.282
14.324	-5015.282
14.326	-3911.282
14.328	-2031.282
14.330	78.718
14.332	2623.718
14.334	3062.718
14.336	2898.718
14.338	2356.718
14.340	1268.718
14.342	549.718
14.344	-198.282
14.346	-2605.282
14.348	-5519.282
14.350	-6854.282
14.352	-6900.282
14.354	-6516.282
14.356	-6248.282
14.358	-6704.282
14.360	-6771.282
14.362	-6838.282
14.364	-5266.282
14.366	-973.282
14.368	-518.282
14.370	-384.282
14.372	2178.718
14.374	3327.718
14.376	3916.718
14.378	3476.718
14.380	1702.718
14.382	-548.282
14.384	-1292.282
14.386	-902.282
14.388	-2318.282
14.390	-5263.282
14.392	-6886.282
14.394	-7524.282
14.396	-7578.282
14.398	-7038.282
14.400	-5526.282
14.402	-4633.282
14.404	-4213.282
14.406	-2628.282
14.408	-2314.282
14.410	-806.282
14.412	1836.718
14.414	2483.718
14.416	1971.718
14.418	2713.718
14.420	2649.718
14.422	1987.718
14.424	1313.718
14.426	-1759.282
14.428	-3901.282
14.430	-5059.282
14.432	-5878.282
14.434	-6807.282
14.436	-6827.282
14.438	-6076.282
14.440	-5035.282
14.442	-4396.282
14.444	-4520.282
14.446	-3478.282
14.448	-2023.282
14.450	83.718
14.452	1849.718
14.454	2486.718
14.456	3432.718
14.458	3942.718
14.460	2420.718
14.462	-3.282
14.464	-1095.282
14.466	-1715.282
14.468	-3086.282
14.470	-3434.282
14.472	-4191.282
14.474	-5741.282
14.476	-6638.282
14.478	-6768.282
14.480	-6298.282
14.482	-5449.282
14.484	-4726.282
14.486	-2633.282
14.488	-1192.282
14.490	691.718
14.492	3177.718
14.494	4113.718
14.496	4178.718
14.498	3233.718
14.500	2270.718
14.502	1333.718
14.504	411.718
14.506	-1312.282
14.508	-3194.282
14.510	-5503.282
14.512	-6358.282
14.514	-7356.282
14.516	-6161.282
14.518	-5403.282
14.520	-5207.282
14.522	-4239.282
14.524	-3243.282
14.526	-1947.282
14.528	-1177.282
14.530	794.718
14.532	2618.718
14.534	3070.718
14.536	4631.718
14.538	5026.718
14.540	3648.718
14.542	1478.718
14.544	-264.282
14.546	-1902.282
14.548	-3380.282
14.550	-4414.282
14.552	-5185.282
14.554	-6331.282
14.556	-6334.282
14.558	-6213.282
14.560	-6386.282
14.562	-5448.282
14.564	-4908.282
14.566	-3543.282
14.568	-1099.282
14.570	2701.718
14.572	3266.718
14.574	3428.718
14.576	3233.718
14.578	2756.718
14.580	2230.718
14.582	1190.718
14.584	-301.282
14.586	-1835.282
14.588	-2020.282
14.590	-1857.282
14.592	-3685.282
14.594	-5683.282
14.596	-6431.282
14.598	-6744.282
14.600	-6813.282
14.602	-6088.282
14.604	-4036.282
14.606	-3042.282
14.608	-2065.282
14.610	618.718
14.612	2089.718
14.614	3463.718
14.616	4153.718
14.618	4075.718
14.620	3841.718
14.622	3238.718
14.624	1446.718
14.626	-637.282
14.628	-1769.282
14.630	-3576.282
14.632	-4425.282
14.634	-5913.282
14.636	-7396.282
14.638	-7783.282
14.640	-5898.282
14.642	-4662.282
14.644	-3628.282
14.646	-3564.282
14.648	-1790.282
14.650	2473.718
14.652	4027.718
14.654	3883.718
14.656	3119.718
14.658	3237.718
14.660	3400.718
14.662	1546.718
14.664	-734.282
14.666	-686.282
14.668	-2203.282
14.670	-5213.282
14.672	-7314.282
14.674	-7133.282
14.676	-5921.282
14.678	-5332.282
14.680	-5668.282
14.682	-5123.282
14.684	-4430.282
14.686	-3433.282
14.688	-1668.282
14.690	1396.718
14.692	2363.718
14.694	2516.718
14.696	3400.718
14.698	3134.718
14.700	2100.718
14.702	648.718
14.704	-636.282
14.706	-1695.282
14.708	-3231.282
14.710	-4510.282
14.712	-4899.282
14.714	-6011.282
14.716	-7421.282
14.718	-7543.282
14.720	-6653.282
14.722	-5409.282
14.724	-3968.282
14.726	-3184.282
14.728	-1071.282
14.730	1644.718
14.732	2096.718
14.734	2253.718
14.736	2161.718
14.738	2262.718
14.740	1956.718
14.742	1096.718
14.744	-777.282
14.746	-2678.282
14.748	-4438.282
14.750	-5530.282
14.752	-5483.282
14.754	-6606.282
14.756	-7839.282
14.758	-7646.282
14.760	-6377.282
14.762	-4874.282
14.764	-4469.282
14.766	-4801.282
14.768	-549.282
14.770	1603.718
14.772	2461.718
14.774	2446.718
14.776	2046.718
14.778	1588.718
14.780	220.718
14.782	-1213.282
14.784	-503.282
14.786	-1049.282
14.788	-3133.282
14.790	-4589.282
14.792	-5353.282
14.794	-6561.282
14.796	-7111.282
14.798	-7646.282
14.800	-6906.282
14.802	-6089.282
14.804	-6042.282
14.806	-4499.282
14.808	-1382.282
14.810	953.718
14.812	2614.718
14.814	3508.718
14.816	3343.718
14.818	2948.718
14.820	2443.718
14.822	1286.718
14.824	-136.282
14.826	-2263.282
14.828	-2753.282
14.830	-2293.282
14.832	-3574.282
14.834	-4928.282
14.836	-5048.282
14.838	-5149.282
14.840	-4713.282
14.842	-3687.282
14.844	-3478.282
14.846	-1944.282
14.848	1088.718
14.850	3815.718
14.852	5213.718
14.854	5403.718
14.856	5270.718
14.858	4565.718
14.860	5151.718
14.862	4854.718
14.864	2817.718
14.866	430.718
14.868	-1428.282
14.870	-2829.282
14.872	-2671.282
14.874	-2679.282
14.876	-3226.282
14.878	-4218.282
14.880	-3403.282
14.882	-2252.282
14.884	-2299.282
14.886	-324.282
14.888	3631.718
14.890	4930.718
14.892	5198.718
14.894	5826.718
14.896	5189.718
14.898	4573.718
14.900	3734.718
14.902	2191.718
14.904	71.718
14.906	-1167.282
14.908	-3462.282
14.910	-5451.282
14.912	-5985.282
14.914	-6588.282
14.916	-6764.282
14.918	-6780.282
14.920	-5559.282
14.922	-4551.282
14.924	-4964.282
14.926	-3598.282
14.928	-433.282
14.930	596.718
14.932	462.718
14.934	920.718
14.936	625.718
14.938	454.718
14.940	661.718
14.942	-286.282
14.944	-1033.282
14.946	-3044.282
14.948	-5773.282
14.950	-6128.282
14.952	-5829.282
14.954	-6899.282
14.956	-8142.282
14.958	-7900.282
14.960	-5856.282
14.962	-4806.282
14.964	-4866.282
14.966	-2077.282
14.968	-176.282
14.970	38.718
14.972	358.718
14.974	1136.718
14.976	1221.718
14.978	1437.718
14.980	-24.282
14.982	-2008.282
14.984	-2443.282
14.986	-2835.282
14.988	-4369.282
14.990	-5764.282
14.992	-7719.282
14.994	-9267.282
14.996	-7884.282
14.998	-7429.282
