0.000	996.076
0.002	4265.076
0.004	5345.076
0.006	5123.076
0.008	4530.076
0.010	3663.076
0.012	3109.076
0.014	1514.076
0.016	499.076
0.018	330.076
0.020	-1219.924
0.022	-3178.924
0.024	-3617.924
0.026	-4653.924
0.028	-5281.924
0.030	-4714.924
0.032	-5339.924
0.034	-5468.924
0.036	-3678.924
0.038	-3517.924
0.040	-2484.924
0.042	1298.076
0.044	2112.076
0.046	2405.076
0.048	2693.076
0.050	2194.076
0.052	1126.076
0.054	571.076
0.056	365.076
0.058	-974.924
0.060	-2783.924
0.062	-4828.924
0.064	-6266.924
0.066	-6554.924
0.068	-6492.924
0.070	-7524.924
0.072	-7179.924
0.074	-5661.924
0.076	-3235.924
0.078	-2811.924
0.080	-2327.924
0.082	470.076
0.084	633.076
0.086	727.076
0.088	2800.076
0.090	2817.076
0.092	1760.076
0.094	1120.076
0.096	684.076
0.098	-701.924
0.100	-3218.924
0.102	-5823.924
0.104	-6521.924
0.106	-7228.924
0.108	-7469.924
0.110	-6519.924
0.112	-5516.924
0.114	-4509.924
0.116	-4472.924
0.118	-3734.924
0.120	-518.924
0.122	769.076
0.124	2034.076
0.126	2957.076
0.128	3741.076
0.130	3834.076
0.132	2870.076
0.134	1003.076
0.136	206.076
0.138	-661.924
0.140	-2070.924
0.142	-2899.924
0.144	-2479.924
0.146	-2103.924
0.148	-779.924
0.150	1090.076
0.152	3703.076
0.154	6477.076
0.156	8425.076
0.158	12600.076
0.160	19394.076
0.162	23563.076
0.164	26351.076
0.166	29142.076
0.168	32242.076
0.170	34459.076
0.172	35485.076
0.174	36381.076
0.176	38148.076
0.178	39113.076
0.180	39085.076
0.182	38370.076
0.184	38158.076
0.186	34569.076
0.188	29551.076
0.190	26343.076
0.192	23420.076
0.194	22360.076
0.196	18220.076
0.198	13962.076
0.200	11960.076
0.202	9847.076
0.204	7868.076
0.206	7475.076
0.208	7165.076
0.210	6429.076
0.212	5363.076
0.214	3198.076
0.216	350.076
0.218	-1973.924
0.220	-4286.924
0.222	-6138.924
0.224	-6746.924
0.226	-7480.924
0.228	-8704.924
0.230	-8556.924
0.232	-8384.924
0.234	-6430.924
0.236	-6296.924
0.238	-5593.924
0.240	-2663.924
0.242	-1109.924
0.244	-1768.924
0.246	-1494.924
0.248	-1566.924
0.250	-1739.924
0.252	-1185.924
0.254	-1976.924
0.256	-2903.924
0.258	-3819.924
0.260	-5025.924
0.262	-6644.924
0.264	-7650.924
0.266	-8676.924
0.268	-8720.924
0.270	-7116.924
0.272	-5149.924
0.274	-3300.924
0.276	-3679.924
0.278	-2729.924
0.280	208.076
0.282	1076.076
0.284	1160.076
0.286	2015.076
0.288	2755.076
0.290	2736.076
0.292	856.076
0.294	-1492.924
0.296	-1673.924
0.298	-933.924
0.300	-2746.924
0.302	-4514.924
0.304	-4814.924
0.306	-4938.924
0.308	-4852.924
0.310	-5553.924
0.312	-5042.924
0.314	-3924.924
0.316	-3543.924
0.318	-1856.924
0.320	1270.076
0.322	3145.076
0.324	3598.076
0.326	3103.076
0.328	3945.076
0.330	4608.076
0.332	3041.076
0.334	1755.076
0.336	947.076
0.338	-1320.924
0.340	-2964.924
0.342	-3361.924
0.344	-3921.924
0.346	-5147.924
0.348	-5533.924
0.350	-4970.924
0.352	-4448.924
0.354	-4478.924
0.356	-3737.924
0.358	503.076
0.360	2146.076
0.362	2476.076
0.364	2841.076
0.366	3400.076
0.368	4020.076
0.370	3512.076
0.372	2125.076
0.374	1320.076
0.376	1205.076
0.378	-235.924
0.380	-2233.924
0.382	-2726.924
0.384	-3005.924
0.386	-4547.924
0.388	-5241.924
0.390	-5615.924
0.392	-5101.924
0.394	-4160.924
0.396	-2520.924
0.398	1261.076
0.400	4239.076
0.402	5828.076
0.404	5763.076
0.406	5563.076
0.408	4993.076
0.410	4680.076
0.412	4110.076
0.414	2567.076
0.416	1521.076
0.418	48.076
0.420	-1203.924
0.422	-1917.924
0.424	-3707.924
0.426	-4941.924
0.428	-3952.924
0.430	-3328.924
0.432	-2755.924
0.434	-2648.924
0.436	-2164.924
0.438	1513.076
0.440	4891.076
0.442	6092.076
0.444	6493.076
0.446	6603.076
0.448	6220.076
0.450	5808.076
0.452	5356.076
0.454	4346.076
0.456	3664.076
0.458	2156.076
0.460	-256.924
0.462	-1347.924
0.464	-2487.924
0.466	-3470.924
0.468	-3046.924
0.470	-2706.924
0.472	-2183.924
0.474	-1946.924
0.476	-1113.924
0.478	1766.076
0.480	4141.076
0.482	5471.076
0.484	6879.076
0.486	7917.076
0.488	8446.076
0.490	8413.076
0.492	7635.076
0.494	6738.076
0.496	4765.076
0.498	2761.076
0.500	1709.076
0.502	1688.076
0.504	1428.076
0.506	22.076
0.508	-291.924
0.510	-473.924
0.512	-326.924
0.514	21.076
0.516	2377.076
0.518	6566.076
0.520	8370.076
0.522	8178.076
0.524	8740.076
0.526	10151.076
0.528	10519.076
0.530	10038.076
0.532	8690.076
0.534	7359.076
0.536	7018.076
0.538	6216.076
0.540	4038.076
0.542	2709.076
0.544	2912.076
0.546	2465.076
0.548	1645.076
0.550	1188.076
0.552	2452.076
0.554	3681.076
0.556	6989.076
0.558	8560.076
0.560	9313.076
0.562	11195.076
0.564	13021.076
0.566	13471.076
0.568	12115.076
0.570	11328.076
0.572	10968.076
0.574	11548.076
0.576	11228.076
0.578	9076.076
0.580	6507.076
0.582	5601.076
0.584	5127.076
0.586	4595.076
0.588	5283.076
0.590	7087.076
0.592	7653.076
0.594	8443.076
0.596	10432.076
0.598	12424.076
0.600	13786.076
0.602	14583.076
0.604	15861.076
0.606	16433.076
0.608	16528.076
0.610	16433.076
0.612	15495.076
0.614	14056.076
0.616	13349.076
0.618	13044.076
0.620	11693.076
0.622	10810.076
0.624	9540.076
0.626	8328.076
0.628	8392.076
0.630	9660.076
0.632	9753.076
0.634	9710.076
0.636	11527.076
0.638	13348.076
0.640	14635.076
0.642	16973.076
0.644	18352.076
0.646	18006.076
0.648	17066.076
0.650	16923.076
0.652	16860.076
0.654	16823.076
0.656	16266.076
0.658	14785.076
0.660	11668.076
0.662	9605.076
0.664	9828.076
0.666	9842.076
0.668	9085.076
0.670	8824.076
0.672	8603.076
0.674	10162.076
0.676	12901.076
0.678	13667.076
0.680	14136.076
0.682	14931.076
0.684	15165.076
0.686	15321.076
0.688	15716.076
0.690	15217.076
0.692	13279.076
0.694	12221.076
0.696	11201.076
0.698	9503.076
0.700	7423.076
0.702	7030.076
0.704	5523.076
0.706	3216.076
0.708	2207.076
0.710	2906.076
0.712	3873.076
0.714	4061.076
0.716	5594.076
0.718	7008.076
0.720	8653.076
0.722	10271.076
0.724	10233.076
0.726	10138.076
0.728	9451.076
0.730	8978.076
0.732	8273.076
0.734	7013.076
0.736	4767.076
0.738	2771.076
0.740	1625.076
0.742	494.076
0.744	-1178.924
0.746	-2744.924
0.748	-2787.924
0.750	-2968.924
0.752	-3009.924
0.754	-333.924
0.756	820.076
0.758	1856.076
0.760	3940.076
0.762	4886.076
0.764	4896.076
0.766	4470.076
0.768	3993.076
0.770	3851.076
0.772	2818.076
0.774	2165.076
0.776	1359.076
0.778	-444.924
0.780	-2468.924
0.782	-3470.924
0.784	-4615.924
0.786	-5176.924
0.788	-6216.924
0.790	-6324.924
0.792	-4462.924
0.794	-1063.924
0.796	-499.924
0.798	5.076
0.800	1259.076
0.802	2050.076
0.804	3345.076
0.806	3948.076
0.808	3809.076
0.810	2841.076
0.812	1885.076
0.814	1258.076
0.816	-1039.924
0.818	-2866.924
0.820	-3891.924
0.822	-4281.924
0.824	-4262.924
0.826	-5011.924
0.828	-6039.924
0.830	-7085.924
0.832	-5795.924
0.834	-1794.924
0.836	-239.924
0.838	-845.924
0.840	-619.924
0.842	640.076
0.844	1978.076
0.846	1973.076
0.848	938.076
0.850	-780.924
0.852	-1230.924
0.854	-224.924
0.856	-391.924
0.858	-1993.924
0.860	-3529.924
0.862	-4204.924
0.864	-3391.924
0.866	-5028.924
0.868	-6443.924
0.870	-6423.924
0.872	-4788.924
0.874	-2054.924
0.876	-446.924
0.878	294.076
0.880	1908.076
0.882	2870.076
0.884	3536.076
0.886	3999.076
0.888	3501.076
0.890	2170.076
0.892	434.076
0.894	-679.924
0.896	-1895.924
0.898	-2653.924
0.900	-4661.924
0.902	-6356.924
0.904	-5918.924
0.906	-5084.924
0.908	-5453.924
0.910	-6853.924
0.912	-6245.924
0.914	-3174.924
0.916	-1966.924
0.918	-836.924
0.920	1201.076
0.922	2050.076
0.924	3290.076
0.926	3735.076
0.928	3388.076
0.930	2178.076
0.932	518.076
0.934	-33.924
0.936	-769.924
0.938	-1963.924
0.940	-3825.924
0.942	-4986.924
0.944	-6241.924
0.946	-7024.924
0.948	-7122.924
0.950	-7244.924
0.952	-4119.924
0.954	-2848.924
0.956	-2919.924
0.958	-1771.924
0.960	743.076
0.962	1677.076
0.964	2911.076
0.966	3519.076
0.968	2153.076
0.970	1784.076
0.972	1595.076
0.974	672.076
0.976	-1221.924
0.978	-3528.924
0.980	-4228.924
0.982	-3454.924
0.984	-4751.924
0.986	-6636.924
0.988	-7755.924
0.990	-7399.924
0.992	-4736.924
0.994	-4476.924
0.996	-2632.924
0.998	133.076
1.000	1490.076
1.002	1971.076
1.004	2041.076
1.006	2420.076
1.008	2796.076
1.010	2036.076
1.012	1451.076
1.014	-13.924
1.016	-2205.924
1.018	-3914.924
1.020	-5528.924
1.022	-5831.924
1.024	-5929.924
1.026	-6933.924
1.028	-7633.924
1.030	-6756.924
1.032	-4018.924
1.034	-2005.924
1.036	-404.924
1.038	811.076
1.040	2203.076
1.042	2546.076
1.044	3706.076
1.046	4825.076
1.048	3707.076
1.050	3081.076
1.052	1730.076
1.054	867.076
1.056	65.076
1.058	-2139.924
1.060	-4819.924
1.062	-5290.924
1.064	-5384.924
1.066	-5750.924
1.068	-7521.924
1.070	-6939.924
1.072	-4021.924
1.074	-3091.924
1.076	-1808.924
1.078	509.076
1.080	2698.076
1.082	3608.076
1.084	4502.076
1.086	4413.076
1.088	3361.076
1.090	2604.076
1.092	2169.076
1.094	1521.076
1.096	-107.924
1.098	-1823.924
1.100	-3126.924
1.102	-4156.924
1.104	-4943.924
1.106	-5689.924
1.108	-7304.924
1.110	-6814.924
1.112	-4269.924
1.114	-3068.924
1.116	-2060.924
1.118	93.076
1.120	2849.076
1.122	3590.076
1.124	3597.076
1.126	3990.076
1.128	3475.076
1.130	2273.076
1.132	1511.076
1.134	975.076
1.136	-313.924
1.138	-1963.924
1.140	-3663.924
1.142	-4153.924
1.144	-5677.924
1.146	-7837.924
1.148	-9116.924
1.150	-7078.924
1.152	-3506.924
1.154	-2178.924
1.156	-611.924
1.158	1293.076
1.160	2393.076
1.162	2693.076
1.164	2996.076
1.166	3624.076
1.168	4123.076
1.170	2871.076
1.172	161.076
1.174	-578.924
1.176	18.076
1.178	-1303.924
1.180	-4026.924
1.182	-5025.924
1.184	-5562.924
1.186	-6861.924
1.188	-7375.924
1.190	-5009.924
1.192	-4699.924
1.194	-4079.924
1.196	-1991.924
1.198	451.076
1.200	2544.076
1.202	3130.076
1.204	2952.076
1.206	3211.076
1.208	3233.076
1.210	3059.076
1.212	1400.076
1.214	778.076
1.216	-86.924
1.218	-2505.924
1.220	-4331.924
1.222	-5916.924
1.224	-7156.924
1.226	-8291.924
1.228	-7189.924
1.230	-4132.924
1.232	-2063.924
1.234	-1283.924
1.236	-1626.924
1.238	-727.924
1.240	781.076
1.242	1634.076
1.244	3654.076
1.246	4127.076
1.248	3723.076
1.250	2051.076
1.252	1180.076
1.254	990.076
1.256	-738.924
1.258	-2139.924
1.260	-3207.924
1.262	-4289.924
1.264	-5278.924
1.266	-6520.924
1.268	-5942.924
1.270	-3498.924
1.272	-2823.924
1.274	-2656.924
1.276	-1360.924
1.278	265.076
1.280	1585.076
1.282	2751.076
1.284	3298.076
1.286	3185.076
1.288	2621.076
1.290	2021.076
1.292	936.076
1.294	-103.924
1.296	-1955.924
1.298	-3346.924
1.300	-4355.924
1.302	-5397.924
1.304	-6104.924
1.306	-7379.924
1.308	-7141.924
1.310	-5419.924
1.312	-3321.924
1.314	-1548.924
1.316	106.076
1.318	1716.076
1.320	2269.076
1.322	2867.076
1.324	3802.076
1.326	3439.076
1.328	2723.076
1.330	1876.076
1.332	1230.076
1.334	278.076
1.336	-1191.924
1.338	-2471.924
1.340	-4011.924
1.342	-5433.924
1.344	-6818.924
1.346	-7082.924
1.348	-5336.924
1.350	-3287.924
1.352	-3459.924
1.354	-3741.924
1.356	-2130.924
1.358	5.076
1.360	1713.076
1.362	2725.076
1.364	3367.076
1.366	3513.076
1.368	2648.076
1.370	1596.076
1.372	1420.076
1.374	1353.076
1.376	-340.924
1.378	-2498.924
1.380	-3564.924
1.382	-3744.924
1.384	-5533.924
1.386	-6111.924
1.388	-3617.924
1.390	-2529.924
1.392	-1489.924
1.394	-561.924
1.396	133.076
1.398	2045.076
1.400	3808.076
1.402	4341.076
1.404	5325.076
1.406	5609.076
1.408	5041.076
1.410	4565.076
1.412	2613.076
1.414	589.076
1.416	-261.924
1.418	-585.924
1.420	-2303.924
1.422	-2825.924
1.424	-3970.924
1.426	-4157.924
1.428	-3576.924
1.430	-2606.924
1.432	-1057.924
1.434	783.076
1.436	2775.076
1.438	3821.076
1.440	4220.076
1.442	5203.076
1.444	6071.076
1.446	5703.076
1.448	5588.076
1.450	4963.076
1.452	3748.076
1.454	2446.076
1.456	1125.076
1.458	-748.924
1.460	-2296.924
1.462	-3406.924
1.464	-4895.924
1.466	-4854.924
1.468	-4321.924
1.470	-4511.924
1.472	-3408.924
1.474	-1969.924
1.476	-1100.924
1.478	644.076
1.480	1763.076
1.482	2191.076
1.484	3912.076
1.486	4616.076
1.488	4311.076
1.490	3311.076
1.492	1822.076
1.494	661.076
1.496	-171.924
1.498	-2075.924
1.500	-4372.924
1.502	-5528.924
1.504	-7289.924
1.506	-7643.924
1.508	-5899.924
1.510	-5331.924
1.512	-5353.924
1.514	-3126.924
1.516	-319.924
1.518	1015.076
1.520	2142.076
1.522	2293.076
1.524	1865.076
1.526	1596.076
1.528	1361.076
1.530	374.076
1.532	528.076
1.534	1103.076
1.536	-583.924
1.538	-2919.924
1.540	-4896.924
1.542	-5719.924
1.544	-6433.924
1.546	-6683.924
1.548	-5883.924
1.550	-4997.924
1.552	-3818.924
1.554	-2786.924
1.556	-2323.924
1.558	-1291.924
1.560	899.076
1.562	2160.076
1.564	3058.076
1.566	4020.076
1.568	3298.076
1.570	1054.076
1.572	-1104.924
1.574	-2294.924
1.576	-2440.924
1.578	-3249.924
1.580	-5083.924
1.582	-5930.924
1.584	-8548.924
1.586	-7181.924
1.588	-5900.924
1.590	-4055.924
1.592	-2328.924
1.594	-1110.924
1.596	-13.924
1.598	1355.076
1.600	2151.076
1.602	3171.076
1.604	4592.076
1.606	6001.076
1.608	7188.076
1.610	7520.076
1.612	8370.076
1.614	9869.076
1.616	10615.076
1.618	10353.076
1.620	10903.076
1.622	11631.076
1.624	13550.076
1.626	17825.076
1.628	19766.076
1.630	22873.076
1.632	26865.076
1.634	29577.076
1.636	33746.076
1.638	38628.076
1.640	42727.076
1.642	44653.076
1.644	45744.076
1.646	46215.076
1.648	43904.076
1.650	38796.076
1.652	33563.076
1.654	27908.076
1.656	23726.076
1.658	18105.076
1.660	11528.076
1.662	4746.076
1.664	129.076
1.666	-937.924
1.668	-1454.924
1.670	-1117.924
1.672	-755.924
1.674	-117.924
1.676	1160.076
1.678	2127.076
1.680	1487.076
1.682	476.076
1.684	960.076
1.686	1696.076
1.688	1557.076
1.690	1034.076
1.692	-225.924
1.694	-2176.924
1.696	-4300.924
1.698	-6435.924
1.700	-8418.924
1.702	-10195.924
1.704	-11279.924
1.706	-9494.924
1.708	-9733.924
1.710	-9494.924
1.712	-7790.924
1.714	-5279.924
1.716	-2848.924
1.718	-1333.924
1.720	-86.924
1.722	978.076
1.724	1230.076
1.726	1051.076
1.728	610.076
1.730	76.076
1.732	-223.924
1.734	-710.924
1.736	-1573.924
1.738	-3480.924
1.740	-5165.924
1.742	-6897.924
1.744	-7556.924
1.746	-6616.924
1.748	-5964.924
1.750	-5081.924
1.752	-4109.924
1.754	-2373.924
1.756	-671.924
1.758	913.076
1.760	1968.076
1.762	2440.076
1.764	1831.076
1.766	911.076
1.768	1010.076
1.770	2223.076
1.772	3068.076
1.774	1737.076
1.776	-266.924
1.778	-2426.924
1.780	-4951.924
1.782	-7368.924
1.784	-5801.924
1.786	-4874.924
1.788	-4509.924
1.790	-3383.924
1.792	-1908.924
1.794	-839.924
1.796	236.076
1.798	2016.076
1.800	2835.076
1.802	3207.076
1.804	3619.076
1.806	3406.076
1.808	3273.076
1.810	2800.076
1.812	2102.076
1.814	455.076
1.816	-1867.924
1.818	-3438.924
1.820	-5356.924
1.822	-6921.924
1.824	-4543.924
1.826	-3716.924
1.828	-3808.924
1.830	-2671.924
1.832	-1836.924
1.834	-1481.924
1.836	-171.924
1.838	2525.076
1.840	2968.076
1.842	3156.076
1.844	3759.076
1.846	4129.076
1.848	4568.076
1.850	4381.076
1.852	3543.076
1.854	1883.076
1.856	-463.924
1.858	-2417.924
1.860	-3076.924
1.862	-3968.924
1.864	-3592.924
1.866	-3401.924
1.868	-3868.924
1.870	-3268.924
1.872	-2628.924
1.874	-1208.924
1.876	859.076
1.878	3564.076
1.880	4716.076
1.882	5192.076
1.884	5504.076
1.886	4898.076
1.888	3823.076
1.890	3131.076
1.892	2173.076
1.894	1683.076
1.896	576.076
1.898	-1677.924
1.900	-4154.924
1.902	-5124.924
1.904	-4020.924
1.906	-3443.924
1.908	-3958.924
1.910	-3388.924
1.912	-1885.924
1.914	-221.924
1.916	2087.076
1.918	3941.076
1.920	5501.076
1.922	6523.076
1.924	6120.076
1.926	5396.076
1.928	4979.076
1.930	5545.076
1.932	5436.076
1.934	3678.076
1.936	1551.076
1.938	-106.924
1.940	-2000.924
1.942	-2634.924
1.944	-1473.924
1.946	-1649.924
1.948	-1701.924
1.950	-502.924
1.952	664.076
1.954	2323.076
1.956	4485.076
1.958	6485.076
1.960	7256.076
1.962	7247.076
1.964	7169.076
1.966	7413.076
1.968	7675.076
1.970	6560.076
1.972	4373.076
1.974	3236.076
1.976	4215.076
1.978	3151.076
1.980	335.076
1.982	-688.924
1.984	1066.076
1.986	1351.076
1.988	746.076
1.990	1358.076
1.992	1931.076
1.994	4325.076
1.996	6285.076
1.998	7941.076
2.000	8971.076
2.002	9390.076
2.004	10700.076
2.006	10665.076
2.008	9528.076
2.010	8602.076
2.012	7824.076
2.014	7055.076
2.016	5905.076
2.018	3277.076
2.020	2125.076
2.022	3760.076
2.024	2586.076
2.026	1780.076
2.028	3246.076
2.030	5078.076
2.032	5404.076
2.034	7062.076
2.036	9750.076
2.038	12026.076
2.040	13371.076
2.042	13920.076
2.044	13530.076
2.046	12606.076
2.048	12047.076
2.050	12238.076
2.052	12556.076
2.054	11845.076
2.056	9963.076
2.058	7286.076
2.060	5726.076
2.062	6555.076
2.064	6730.076
2.066	6518.076
2.068	7087.076
2.070	9134.076
2.072	10460.076
2.074	11540.076
2.076	12727.076
2.078	15056.076
2.080	16850.076
2.082	16860.076
2.084	16628.076
2.086	16370.076
2.088	17202.076
2.090	16913.076
2.092	15690.076
2.094	14161.076
2.096	11456.076
2.098	8945.076
2.100	8261.076
2.102	9414.076
2.104	9666.076
2.106	9196.076
2.108	9111.076
2.110	9440.076
2.112	10702.076
2.114	13181.076
2.116	14775.076
2.118	15943.076
2.120	16461.076
2.122	16466.076
2.124	17561.076
2.126	17255.076
2.128	15865.076
2.130	15580.076
2.132	16040.076
2.134	14125.076
2.136	11365.076
2.138	8667.076
2.140	8290.076
2.142	7541.076
2.144	6807.076
2.146	5321.076
2.148	5320.076
2.150	7711.076
2.152	9652.076
2.154	10376.076
2.156	11133.076
2.158	12947.076
2.160	13568.076
2.162	13360.076
2.164	12617.076
2.166	12003.076
2.168	11590.076
2.170	10639.076
2.172	9495.076
2.174	8054.076
2.176	5303.076
2.178	1611.076
2.180	1039.076
2.182	2173.076
2.184	710.076
2.186	-192.924
2.188	518.076
2.190	1451.076
2.192	1913.076
2.194	2813.076
2.196	3966.076
2.198	5211.076
2.200	5874.076
2.202	6867.076
2.204	7319.076
2.206	6696.076
2.208	6216.076
2.210	5052.076
2.212	3432.076
2.214	1688.076
2.216	-926.924
2.218	-3864.924
2.220	-2473.924
2.222	-3282.924
2.224	-4834.924
2.226	-4988.924
2.228	-4666.924
2.230	-3183.924
2.232	-1706.924
2.234	78.076
2.236	1374.076
2.238	2131.076
2.240	2523.076
2.242	3437.076
2.244	3305.076
2.246	2171.076
2.248	431.076
2.250	640.076
2.252	540.076
2.254	-922.924
2.256	-3688.924
2.258	-4990.924
2.260	-4396.924
2.262	-5151.924
2.264	-5470.924
2.266	-5484.924
2.268	-5203.924
2.270	-4744.924
2.272	-4069.924
2.274	-2684.924
2.276	-1701.924
2.278	63.076
2.280	1618.076
2.282	2796.076
2.284	3336.076
2.286	2996.076
2.288	2424.076
2.290	1205.076
2.292	575.076
2.294	-849.924
2.296	-3579.924
2.298	-4074.924
2.300	-3296.924
2.302	-5356.924
2.304	-6984.924
2.306	-7141.924
2.308	-6338.924
2.310	-4533.924
2.312	-3546.924
2.314	-2688.924
2.316	-1513.924
2.318	948.076
2.320	3462.076
2.322	3870.076
2.324	3357.076
2.326	2318.076
2.328	788.076
2.330	-688.924
2.332	-1799.924
2.334	-3749.924
2.336	-5352.924
2.338	-5025.924
2.340	-4287.924
2.342	-5998.924
2.344	-6230.924
2.346	-5662.924
2.348	-4509.924
2.350	-4089.924
2.352	-3881.924
2.354	-3228.924
2.356	-1633.924
2.358	-334.924
2.360	-179.924
2.362	-6.924
2.364	1076.076
2.366	1358.076
2.368	1141.076
2.370	784.076
2.372	418.076
2.374	-996.924
2.376	-4645.924
2.378	-7104.924
2.380	-6833.924
2.382	-8684.924
2.384	-9341.924
2.386	-7469.924
2.388	-5494.924
2.390	-4473.924
2.392	-3676.924
2.394	-2239.924
2.396	-941.924
2.398	208.076
2.400	1521.076
2.402	1670.076
2.404	1100.076
2.406	846.076
2.408	1908.076
2.410	1319.076
2.412	246.076
2.414	-2142.924
2.416	-4786.924
2.418	-3858.924
2.420	-4910.924
2.422	-6413.924
2.424	-7383.924
2.426	-8014.924
2.428	-6711.924
2.430	-4824.924
2.432	-3688.924
2.434	-2715.924
2.436	-1214.924
2.438	738.076
2.440	1603.076
2.442	2554.076
2.444	2233.076
2.446	968.076
2.448	146.076
2.450	383.076
2.452	-616.924
2.454	-4268.924
2.456	-6111.924
2.458	-5011.924
2.460	-5372.924
2.462	-7481.924
2.464	-8241.924
2.466	-8436.924
2.468	-7828.924
2.470	-4918.924
2.472	-3376.924
2.474	-1945.924
2.476	320.076
2.478	1173.076
2.480	2083.076
2.482	3816.076
2.484	3769.076
2.486	2341.076
2.488	1089.076
2.490	171.076
2.492	-329.924
2.494	-2210.924
2.496	-4304.924
2.498	-3993.924
2.500	-5251.924
2.502	-6547.924
2.504	-6790.924
2.506	-6554.924
2.508	-5468.924
2.510	-4739.924
2.512	-3384.924
2.514	-1428.924
2.516	386.076
2.518	1411.076
2.520	2083.076
2.522	2750.076
2.524	2990.076
2.526	2438.076
2.528	1426.076
2.530	-164.924
2.532	-2023.924
2.534	-4044.924
2.536	-4759.924
2.538	-3671.924
2.540	-3622.924
2.542	-5361.924
2.544	-6693.924
2.546	-6683.924
2.548	-6163.924
2.550	-5193.924
2.552	-3828.924
2.554	-2103.924
2.556	-827.924
2.558	1056.076
2.560	3320.076
2.562	2085.076
2.564	-599.924
2.566	780.076
2.568	2828.076
2.570	2201.076
2.572	670.076
2.574	-2212.924
2.576	-4201.924
2.578	-3677.924
2.580	-4104.924
2.582	-4752.924
2.584	-4978.924
2.586	-4721.924
2.588	-3800.924
2.590	-3434.924
2.592	-2663.924
2.594	-991.924
2.596	1006.076
2.598	2267.076
2.600	3044.076
2.602	2758.076
2.604	1568.076
2.606	1475.076
2.608	1706.076
2.610	938.076
2.612	96.076
2.614	-1319.924
2.616	-2266.924
2.618	-2560.924
2.620	-3718.924
2.622	-5333.924
2.624	-6108.924
2.626	-6189.924
2.628	-5138.924
2.630	-3999.924
2.632	-2503.924
2.634	433.076
2.636	1082.076
2.638	1946.076
2.640	2795.076
2.642	3013.076
2.644	3233.076
2.646	3264.076
2.648	1611.076
2.650	194.076
2.652	-1819.924
2.654	-3829.924
2.656	-3998.924
2.658	-5231.924
2.660	-5768.924
2.662	-6538.924
2.664	-6917.924
2.666	-6895.924
2.668	-5594.924
2.670	-4127.924
2.672	-3076.924
2.674	-1163.924
2.676	603.076
2.678	1503.076
2.680	2144.076
2.682	1959.076
2.684	2421.076
2.686	2495.076
2.688	1712.076
2.690	506.076
2.692	-1381.924
2.694	-2655.924
2.696	-2965.924
2.698	-4319.924
2.700	-5224.924
2.702	-5982.924
2.704	-6134.924
2.706	-6369.924
2.708	-5382.924
2.710	-4376.924
2.712	-3823.924
2.714	-2346.924
2.716	-211.924
2.718	1106.076
2.720	2155.076
2.722	2680.076
2.724	2905.076
2.726	2153.076
2.728	950.076
2.730	608.076
2.732	-1160.924
2.734	-3078.924
2.736	-4086.924
2.738	-5518.924
2.740	-7029.924
2.742	-6929.924
2.744	-7119.924
2.746	-7231.924
2.748	-5783.924
2.750	-4788.924
2.752	-3345.924
2.754	-978.924
2.756	925.076
2.758	2098.076
2.760	2405.076
2.762	3135.076
2.764	3126.076
2.766	2912.076
2.768	1704.076
2.770	588.076
2.772	-2184.924
2.774	-3959.924
2.776	-3332.924
2.778	-4661.924
2.780	-5868.924
2.782	-6700.924
2.784	-6246.924
2.786	-5343.924
2.788	-3832.924
2.790	-3451.924
2.792	-2659.924
2.794	-1331.924
2.796	-404.924
2.798	121.076
2.800	-166.924
2.802	-414.924
2.804	699.076
2.806	2121.076
2.808	1635.076
2.810	952.076
2.812	-753.924
2.814	-2034.924
2.816	-2653.924
2.818	-4628.924
2.820	-6160.924
2.822	-6904.924
2.824	-6669.924
2.826	-5585.924
2.828	-4624.924
2.830	-3648.924
2.832	-2482.924
2.834	-766.924
2.836	842.076
2.838	1106.076
2.840	1944.076
2.842	2691.076
2.844	3171.076
2.846	2671.076
2.848	916.076
2.850	-580.924
2.852	-1583.924
2.854	-577.924
2.856	-2833.924
2.858	-4533.924
2.860	-5176.924
2.862	-5946.924
2.864	-6145.924
2.866	-6145.924
2.868	-5616.924
2.870	-4364.924
2.872	-3380.924
2.874	-1585.924
2.876	1406.076
2.878	2854.076
2.880	3243.076
2.882	3273.076
2.884	3747.076
2.886	3235.076
2.888	2255.076
2.890	-686.924
2.892	-2531.924
2.894	-1771.924
2.896	-2591.924
2.898	-3368.924
2.900	-3951.924
2.902	-4273.924
2.904	-3588.924
2.906	-3424.924
2.908	-2727.924
2.910	-2008.924
2.912	-441.924
2.914	591.076
2.916	1001.076
2.918	1976.076
2.920	4592.076
2.922	5863.076
2.924	5699.076
2.926	5684.076
2.928	4298.076
2.930	1290.076
2.932	53.076
2.934	-604.924
2.936	-2653.924
2.938	-3588.924
2.940	-3808.924
2.942	-3310.924
2.944	-3266.924
2.946	-3006.924
2.948	-1006.924
2.950	-361.924
2.952	-210.924
2.954	920.076
2.956	3017.076
2.958	4195.076
2.960	4433.076
2.962	4716.076
2.964	4578.076
2.966	3119.076
2.968	2152.076
2.970	936.076
2.972	421.076
2.974	497.076
2.976	-2306.924
2.978	-4883.924
2.980	-6179.924
2.982	-6244.924
2.984	-5881.924
2.986	-5597.924
2.988	-5210.924
2.990	-4053.924
2.992	-2269.924
2.994	-1281.924
2.996	106.076
2.998	1178.076
3.000	2240.076
3.002	1873.076
3.004	1100.076
3.006	968.076
3.008	-99.924
3.010	-1793.924
3.012	-1785.924
3.014	-1184.924
3.016	-2614.924
3.018	-4986.924
3.020	-6779.924
3.022	-7749.924
3.024	-7500.924
3.026	-6306.924
3.028	-4984.924
3.030	-4135.924
3.032	-3510.924
3.034	-2526.924
3.036	-770.924
3.038	521.076
3.040	1360.076
3.042	1893.076
3.044	1214.076
3.046	-157.924
3.048	-1221.924
3.050	-823.924
3.052	388.076
3.054	-2264.924
3.056	-4177.924
3.058	-4249.924
3.060	-5441.924
3.062	-6708.924
3.064	-6498.924
3.066	-6304.924
3.068	-5531.924
3.070	-4702.924
3.072	-2828.924
3.074	-999.924
3.076	936.076
3.078	1450.076
3.080	1691.076
3.082	2254.076
3.084	2530.076
3.086	2911.076
3.088	1330.076
3.090	-41.924
3.092	110.076
3.094	-1441.924
3.096	-3286.924
3.098	-5034.924
3.100	-6019.924
3.102	-5884.924
3.104	-4663.924
3.106	-2979.924
3.108	-394.924
3.110	4299.076
3.112	8673.076
3.114	11898.076
3.116	15019.076
3.118	17216.076
3.120	20805.076
3.122	23287.076
3.124	25841.076
3.126	28990.076
3.128	29513.076
3.130	31187.076
3.132	34080.076
3.134	34035.076
3.136	33572.076
3.138	35588.076
3.140	36650.076
3.142	37402.076
3.144	36981.076
3.146	33648.076
3.148	31174.076
3.150	29678.076
3.152	27332.076
3.154	25250.076
3.156	22880.076
3.158	18721.076
3.160	13831.076
3.162	10642.076
3.164	8811.076
3.166	7703.076
3.168	5436.076
3.170	3864.076
3.172	3847.076
3.174	1521.076
3.176	-1885.924
3.178	-4345.924
3.180	-6147.924
3.182	-6786.924
3.184	-6559.924
3.186	-7062.924
3.188	-6528.924
3.190	-4756.924
3.192	-2366.924
3.194	-1301.924
3.196	-1178.924
3.198	-1001.924
3.200	-331.924
3.202	455.076
3.204	-117.924
3.206	-1737.924
3.208	-4037.924
3.210	-4518.924
3.212	-3664.924
3.214	-4544.924
3.216	-6436.924
3.218	-7378.924
3.220	-8723.924
3.222	-9917.924
3.224	-9761.924
3.226	-7718.924
3.228	-5030.924
3.230	-4838.924
3.232	-4250.924
3.234	-1542.924
3.236	1068.076
3.238	2338.076
3.240	2468.076
3.242	2550.076
3.244	3083.076
3.246	1105.076
3.248	-1375.924
3.250	552.076
3.252	541.076
3.254	-1501.924
3.256	-3417.924
3.258	-5535.924
3.260	-6331.924
3.262	-7062.924
3.264	-7483.924
3.266	-7065.924
3.268	-5237.924
3.270	-3402.924
3.272	-2159.924
3.274	-493.924
3.276	1009.076
3.278	2371.076
3.280	3346.076
3.282	3044.076
3.284	2735.076
3.286	813.076
3.288	-317.924
3.290	948.076
3.292	733.076
3.294	-994.924
3.296	-3010.924
3.298	-4384.924
3.300	-5930.924
3.302	-6133.924
3.304	-5385.924
3.306	-4405.924
3.308	-3464.924
3.310	-2719.924
3.312	-1759.924
3.314	145.076
3.316	1913.076
3.318	1951.076
3.320	2007.076
3.322	1628.076
3.324	1566.076
3.326	220.076
3.328	-394.924
3.330	301.076
3.332	-731.924
3.334	-928.924
3.336	-1849.924
3.338	-3763.924
3.340	-4960.924
3.342	-5503.924
3.344	-5735.924
3.346	-4169.924
3.348	-1568.924
3.350	-1578.924
3.352	-871.924
3.354	503.076
3.356	2485.076
3.358	3880.076
3.360	4985.076
3.362	5263.076
3.364	4501.076
3.366	1594.076
3.368	1273.076
3.370	3586.076
3.372	1856.076
3.374	-704.924
3.376	-2101.924
3.378	-2793.924
3.380	-4115.924
3.382	-4615.924
3.384	-4662.924
3.386	-3718.924
3.388	-1694.924
3.390	-503.924
3.392	1073.076
3.394	3302.076
3.396	4525.076
3.398	4356.076
3.400	4611.076
3.402	5095.076
3.404	5156.076
3.406	3030.076
3.408	1546.076
3.410	2151.076
3.412	1302.076
3.414	-452.924
3.416	-1752.924
3.418	-2398.924
3.420	-3845.924
3.422	-4143.924
3.424	-3535.924
3.426	-3106.924
3.428	-2761.924
3.430	-2606.924
3.432	745.076
3.434	3763.076
3.436	5376.076
3.438	6219.076
3.440	7084.076
3.442	7091.076
3.444	6175.076
3.446	4016.076
3.448	3145.076
3.450	3573.076
3.452	2075.076
3.454	728.076
3.456	49.076
3.458	-611.924
3.460	-1682.924
3.462	-2794.924
3.464	-2663.924
3.466	-1166.924
3.468	643.076
3.470	1560.076
3.472	2989.076
3.474	5727.076
3.476	8025.076
3.478	8103.076
3.480	7823.076
3.482	7869.076
3.484	6904.076
3.486	6065.076
3.488	7693.076
3.490	6723.076
3.492	4885.076
3.494	3092.076
3.496	2000.076
3.498	947.076
3.500	-48.924
3.502	-734.924
3.504	-887.924
3.506	-165.924
3.508	1931.076
3.510	4310.076
3.512	5610.076
3.514	7641.076
3.516	9168.076
3.518	10456.076
3.520	10149.076
3.522	9161.076
3.524	7485.076
3.526	7005.076
3.528	8995.076
3.530	9289.076
3.532	7398.076
3.534	4488.076
3.536	4390.076
3.538	5329.076
3.540	4168.076
3.542	3938.076
3.544	5294.076
3.546	6396.076
3.548	6837.076
3.550	7565.076
3.552	9141.076
3.554	11211.076
3.556	12483.076
3.558	14473.076
3.560	15948.076
3.562	15021.076
3.564	13909.076
3.566	14188.076
3.568	15643.076
3.570	14818.076
3.572	12850.076
3.574	11573.076
3.576	10505.076
3.578	9136.076
3.580	7993.076
3.582	7391.076
3.584	7285.076
3.586	8425.076
3.588	10177.076
3.590	11592.076
3.592	13397.076
3.594	14565.076
3.596	15739.076
3.598	17570.076
3.600	19098.076
3.602	18871.076
3.604	16813.076
3.606	15808.076
3.608	15884.076
3.610	14704.076
3.612	12730.076
3.614	10881.076
3.616	9955.076
3.618	9770.076
3.620	8843.076
3.622	7718.076
3.624	6966.076
3.626	7670.076
3.628	9399.076
3.630	11257.076
3.632	11563.076
3.634	12360.076
3.636	14270.076
3.638	14943.076
3.640	15349.076
3.642	16501.076
3.644	14530.076
3.646	13458.076
3.648	14317.076
3.650	12240.076
3.652	9318.076
3.654	7858.076
3.656	6293.076
3.658	4412.076
3.660	2333.076
3.662	2095.076
3.664	2646.076
3.666	3990.076
3.668	5192.076
3.670	5593.076
3.672	6012.076
3.674	7030.076
3.676	9260.076
3.678	10622.076
3.680	10493.076
3.682	9538.076
3.684	8029.076
3.686	8355.076
3.688	6876.076
3.690	4823.076
3.692	1846.076
3.694	-369.924
3.696	-1873.924
3.698	-3349.924
3.700	-5881.924
3.702	-8298.924
3.704	-7995.924
3.706	-3931.924
3.708	-1196.924
3.710	1911.076
3.712	4580.076
3.714	5393.076
3.716	4778.076
3.718	4216.076
3.720	4186.076
3.722	3688.076
3.724	3477.076
3.726	4100.076
3.728	2620.076
3.730	1030.076
3.732	-679.924
3.734	-2363.924
3.736	-3940.924
3.738	-4839.924
3.740	-5906.924
3.742	-5785.924
3.744	-4477.924
3.746	-3191.924
3.748	-3381.924
3.750	-3277.924
3.752	-1217.924
3.754	1496.076
3.756	2508.076
3.758	2484.076
3.760	2310.076
3.762	1271.076
3.764	1401.076
3.766	2457.076
3.768	1232.076
3.770	-856.924
3.772	-2665.924
3.774	-4228.924
3.776	-4940.924
3.778	-5462.924
3.780	-6561.924
3.782	-6565.924
3.784	-6411.924
3.786	-5265.924
3.788	-3562.924
3.790	-2426.924
3.792	-719.924
3.794	903.076
3.796	1873.076
3.798	2097.076
3.800	1861.076
3.802	558.076
3.804	-152.924
3.806	502.076
3.808	-277.924
3.810	-2141.924
3.812	-3148.924
3.814	-3726.924
3.816	-4763.924
3.818	-6114.924
3.820	-7136.924
3.822	-7078.924
3.824	-6621.924
3.826	-6579.924
3.828	-5653.924
3.830	-3657.924
3.832	-1936.924
3.834	1.076
3.836	1171.076
3.838	1386.076
3.840	2277.076
3.842	1418.076
3.844	160.076
3.846	158.076
3.848	164.076
3.850	-361.924
3.852	-1735.924
3.854	-4251.924
3.856	-5287.924
3.858	-6238.924
3.860	-7564.924
3.862	-7683.924
3.864	-7121.924
3.866	-5846.924
3.868	-4401.924
3.870	-3332.924
3.872	-1811.924
3.874	264.076
3.876	1496.076
3.878	2217.076
3.880	1605.076
3.882	218.076
3.884	1961.076
3.886	1515.076
3.888	-446.924
3.890	-2889.924
3.892	-3669.924
3.894	-4999.924
3.896	-5950.924
3.898	-7058.924
3.900	-7756.924
3.902	-7810.924
3.904	-7516.924
3.906	-6208.924
3.908	-5758.924
3.910	-4899.924
3.912	-3530.924
3.914	-1514.924
3.916	378.076
3.918	544.076
3.920	-359.924
3.922	-537.924
3.924	2971.076
3.926	2011.076
3.928	-620.924
3.930	-2470.924
3.932	-4359.924
3.934	-5634.924
3.936	-5307.924
3.938	-5718.924
3.940	-6221.924
3.942	-6510.924
3.944	-7111.924
3.946	-5620.924
3.948	-3868.924
3.950	-2297.924
3.952	-1301.924
3.954	-181.924
3.956	838.076
3.958	1289.076
3.960	810.076
3.962	293.076
3.964	1222.076
3.966	661.076
3.968	-123.924
3.970	-1792.924
3.972	-3716.924
3.974	-5388.924
3.976	-5094.924
3.978	-4480.924
3.980	-5117.924
3.982	-6578.924
3.984	-7979.924
3.986	-6622.924
3.988	-4682.924
3.990	-2642.924
3.992	-652.924
3.994	1774.076
3.996	1790.076
3.998	1594.076
4.000	1510.076
4.002	1694.076
4.004	1678.076
4.006	720.076
4.008	-169.924
4.010	-749.924
4.012	-1621.924
4.014	-4386.924
4.016	-6184.924
4.018	-6216.924
4.020	-7123.924
4.022	-8021.924
4.024	-7607.924
4.026	-5750.924
4.028	-4721.924
4.030	-3517.924
4.032	-1735.924
4.034	68.076
4.036	933.076
4.038	1040.076
4.040	1106.076
4.042	2155.076
4.044	3620.076
4.046	2147.076
4.048	850.076
4.050	-561.924
4.052	-2094.924
4.054	-4026.924
4.056	-5006.924
4.058	-5791.924
4.060	-6806.924
4.062	-7424.924
4.064	-5469.924
4.066	-3913.924
4.068	-4582.924
4.070	-2956.924
4.072	-1107.924
4.074	483.076
4.076	923.076
4.078	988.076
4.080	-469.924
4.082	-179.924
4.084	1428.076
4.086	1093.076
4.088	193.076
4.090	-936.924
4.092	-2956.924
4.094	-5606.924
4.096	-5530.924
4.098	-5413.924
4.100	-6023.924
4.102	-5634.924
4.104	-4948.924
4.106	-3884.924
4.108	-2955.924
4.110	-2188.924
4.112	-678.924
4.114	1741.076
4.116	2640.076
4.118	1490.076
4.120	453.076
4.122	1615.076
4.124	1966.076
4.126	1540.076
4.128	942.076
4.130	-542.924
4.132	-2988.924
4.134	-4403.924
4.136	-5441.924
4.138	-6411.924
4.140	-7031.924
4.142	-7622.924
4.144	-6782.924
4.146	-5288.924
4.148	-4696.924
4.150	-3920.924
4.152	-1643.924
4.154	1202.076
4.156	1885.076
4.158	786.076
4.160	850.076
4.162	2526.076
4.164	1788.076
4.166	1066.076
4.168	545.076
4.170	-1438.924
4.172	-4063.924
4.174	-6109.924
4.176	-6543.924
4.178	-6483.924
4.180	-6634.924
4.182	-6494.924
4.184	-6175.924
4.186	-5305.924
4.188	-4891.924
4.190	-3123.924
4.192	-768.924
4.194	923.076
4.196	2005.076
4.198	1996.076
4.200	2028.076
4.202	2635.076
4.204	2021.076
4.206	183.076
4.208	-1822.924
4.210	-1971.924
4.212	-2466.924
4.214	-4068.924
4.216	-5573.924
4.218	-6143.924
4.220	-6516.924
4.222	-6119.924
4.224	-5457.924
4.226	-4728.924
4.228	-3749.924
4.230	-3593.924
4.232	-3089.924
4.234	-776.924
4.236	889.076
4.238	1500.076
4.240	2487.076
4.242	2935.076
4.244	1759.076
4.246	-416.924
4.248	-2297.924
4.250	-3002.924
4.252	-3991.924
4.254	-4214.924
4.256	-4180.924
4.258	-5715.924
4.260	-7309.924
4.262	-7126.924
4.264	-5966.924
4.266	-4077.924
4.268	-3258.924
4.270	-1563.924
4.272	536.076
4.274	1338.076
4.276	1617.076
4.278	741.076
4.280	453.076
4.282	2083.076
4.284	1128.076
4.286	-801.924
4.288	-1989.924
4.290	-1971.924
4.292	-2248.924
4.294	-4121.924
4.296	-4987.924
4.298	-5831.924
4.300	-6718.924
4.302	-6811.924
4.304	-5637.924
4.306	-4191.924
4.308	-3260.924
4.310	-2144.924
4.312	-600.924
4.314	681.076
4.316	385.076
4.318	251.076
4.320	2411.076
4.322	2182.076
4.324	1231.076
4.326	989.076
4.328	226.076
4.330	-2230.924
4.332	-4143.924
4.334	-5083.924
4.336	-6023.924
4.338	-6385.924
4.340	-6468.924
4.342	-6223.924
4.344	-5991.924
4.346	-5163.924
4.348	-4271.924
4.350	-3143.924
4.352	-2106.924
4.354	-478.924
4.356	783.076
4.358	1428.076
4.360	3313.076
4.362	2993.076
4.364	1178.076
4.366	-149.924
4.368	-442.924
4.370	-1444.924
4.372	-3103.924
4.374	-5290.924
4.376	-6230.924
4.378	-6684.924
4.380	-6570.924
4.382	-6511.924
4.384	-6917.924
4.386	-5732.924
4.388	-4444.924
4.390	-2766.924
4.392	-1120.924
4.394	-254.924
4.396	-945.924
4.398	148.076
4.400	2297.076
4.402	1998.076
4.404	1576.076
4.406	1348.076
4.408	932.076
4.410	-719.924
4.412	-3168.924
4.414	-4895.924
4.416	-5418.924
4.418	-6319.924
4.420	-7266.924
4.422	-7349.924
4.424	-6132.924
4.426	-3548.924
4.428	-1964.924
4.430	-888.924
4.432	124.076
4.434	2110.076
4.436	2026.076
4.438	2737.076
4.440	5191.076
4.442	4115.076
4.444	2888.076
4.446	2220.076
4.448	1713.076
4.450	1475.076
4.452	351.076
4.454	-2049.924
4.456	-3579.924
4.458	-4743.924
4.460	-5368.924
4.462	-4903.924
4.464	-3283.924
4.466	-1461.924
4.468	-827.924
4.470	-111.924
4.472	1265.076
4.474	2671.076
4.476	2404.076
4.478	3774.076
4.480	5723.076
4.482	5048.076
4.484	3910.076
4.486	1899.076
4.488	43.076
4.490	-913.924
4.492	-2145.924
4.494	-2687.924
4.496	-1136.924
4.498	-2043.924
4.500	-4208.924
4.502	-4781.924
4.504	-4082.924
4.506	-3863.924
4.508	-2760.924
4.510	-441.924
4.512	1351.076
4.514	1608.076
4.516	1385.076
4.518	4705.076
4.520	5593.076
4.522	4491.076
4.524	2398.076
4.526	746.076
4.528	-429.924
4.530	-1449.924
4.532	-3069.924
4.534	-3983.924
4.536	-4751.924
4.538	-5793.924
4.540	-6461.924
4.542	-6954.924
4.544	-6715.924
4.546	-5564.924
4.548	-4323.924
4.550	-2557.924
4.552	-933.924
4.554	-1210.924
4.556	-2064.924
4.558	55.076
4.560	1092.076
4.562	1903.076
4.564	1571.076
4.566	66.076
4.568	-1234.924
4.570	-2792.924
4.572	-4013.924
4.574	-5466.924
4.576	-7216.924
4.578	-8158.924
4.580	-7880.924
4.582	-6557.924
4.584	-5004.924
4.586	-3822.924
4.588	-3359.924
4.590	-2511.924
4.592	-984.924
4.594	-914.924
4.596	-188.924
4.598	1958.076
4.600	1671.076
4.602	511.076
4.604	-373.924
4.606	-1211.924
4.608	-2229.924
4.610	-3806.924
4.612	-4861.924
4.614	-5143.924
4.616	-6543.924
4.618	-8078.924
4.620	-8243.924
4.622	-8119.924
4.624	-7645.924
4.626	-6895.924
4.628	-4828.924
4.630	-1651.924
4.632	171.076
4.634	-23.924
4.636	1531.076
4.638	4489.076
4.640	4506.076
4.642	2520.076
4.644	229.076
4.646	-868.924
4.648	124.076
4.650	1744.076
4.652	2729.076
4.654	2858.076
4.656	3975.076
4.658	5403.076
4.660	6249.076
4.662	7521.076
4.664	10661.076
4.666	14184.076
4.668	17429.076
4.670	21625.076
4.672	26946.076
4.674	30256.076
4.676	33093.076
4.678	36461.076
4.680	38838.076
4.682	40145.076
4.684	40724.076
4.686	41530.076
4.688	41909.076
4.690	39025.076
4.692	33701.076
4.694	29622.076
4.696	26193.076
4.698	20737.076
4.700	16313.076
4.702	12131.076
4.704	8968.076
4.706	6136.076
4.708	3895.076
4.710	3218.076
4.712	3233.076
4.714	3132.076
4.716	5834.076
4.718	6952.076
4.720	6564.076
4.722	4597.076
4.724	1783.076
4.726	-582.924
4.728	-2053.924
4.730	-3868.924
4.732	-5586.924
4.734	-6344.924
4.736	-6946.924
4.738	-8664.924
4.740	-9441.924
4.742	-8964.924
4.744	-7827.924
4.746	-8000.924
4.748	-7306.924
4.750	-5398.924
4.752	-4624.924
4.754	-3388.924
4.756	-1017.924
4.758	-906.924
4.760	-732.924
4.762	-95.924
4.764	-860.924
4.766	-2499.924
4.768	-3088.924
4.770	-4471.924
4.772	-6540.924
4.774	-7121.924
4.776	-6514.924
4.778	-5931.924
4.780	-5576.924
4.782	-6584.924
4.784	-7070.924
4.786	-5936.924
4.788	-4553.924
4.790	-2852.924
4.792	-2689.924
4.794	-939.924
4.796	1447.076
4.798	2015.076
4.800	2502.076
4.802	2223.076
4.804	632.076
4.806	-321.924
4.808	-1368.924
4.810	-2569.924
4.812	-3826.924
4.814	-5112.924
4.816	-5675.924
4.818	-6996.924
4.820	-8478.924
4.822	-7614.924
4.824	-5971.924
4.826	-4865.924
4.828	-3529.924
4.830	-1998.924
4.832	-1139.924
4.834	-454.924
4.836	1506.076
4.838	2525.076
4.840	2262.076
4.842	1418.076
4.844	1068.076
4.846	1049.076
4.848	-587.924
4.850	-2752.924
4.852	-4688.924
4.854	-5448.924
4.856	-5340.924
4.858	-6209.924
4.860	-6037.924
4.862	-5339.924
4.864	-4881.924
4.866	-4566.924
4.868	-3514.924
4.870	-1281.924
4.872	649.076
4.874	1760.076
4.876	4187.076
4.878	4506.076
4.880	3920.076
4.882	3478.076
4.884	2148.076
4.886	1428.076
4.888	38.076
4.890	-1950.924
4.892	-3738.924
4.894	-4959.924
4.896	-4881.924
4.898	-5502.924
4.900	-6055.924
4.902	-5423.924
4.904	-3667.924
4.906	-2832.924
4.908	-1905.924
4.910	-949.924
4.912	-404.924
4.914	1435.076
4.916	3600.076
4.918	3885.076
4.920	3808.076
4.922	3370.076
4.924	2326.076
4.926	1018.076
4.928	-168.924
4.930	-1194.924
4.932	-2213.924
4.934	-3525.924
4.936	-5053.924
4.938	-6341.924
4.940	-5621.924
4.942	-4778.924
4.944	-3237.924
4.946	-2421.924
4.948	-965.924
4.950	286.076
4.952	481.076
4.954	2383.076
4.956	2595.076
4.958	2608.076
4.960	3665.076
4.962	4014.076
4.964	1698.076
4.966	838.076
4.968	116.076
4.970	-74.924
4.972	51.076
4.974	-1234.924
4.976	-1912.924
4.978	-2866.924
4.980	-2116.924
4.982	-1795.924
4.984	-1929.924
4.986	-769.924
4.988	1428.076
4.990	2709.076
4.992	3730.076
4.994	5299.076
4.996	5950.076
4.998	6520.076
5.000	6963.076
5.002	6285.076
5.004	4896.076
5.006	3756.076
5.008	2052.076
5.010	600.076
5.012	-764.924
5.014	-1119.924
5.016	-1755.924
5.018	-2472.924
5.020	-2171.924
5.022	-2174.924
5.024	-1164.924
5.026	473.076
5.028	2146.076
5.030	2175.076
5.032	3260.076
5.034	5120.076
5.036	6795.076
5.038	8435.076
5.040	7893.076
5.042	6578.076
5.044	7105.076
5.046	7368.076
5.048	5663.076
5.050	3475.076
5.052	2185.076
5.054	1807.076
5.056	1416.076
5.058	853.076
5.060	904.076
5.062	1064.076
5.064	1973.076
5.066	3933.076
5.068	5515.076
5.070	5958.076
5.072	7859.076
5.074	10193.076
5.076	11463.076
5.078	11348.076
5.080	10513.076
5.082	10146.076
5.084	10550.076
5.086	11022.076
5.088	9451.076
5.090	7150.076
5.092	5835.076
5.094	5381.076
5.096	4792.076
5.098	3651.076
5.100	3795.076
5.102	4816.076
5.104	5584.076
5.106	6730.076
5.108	9256.076
5.110	10263.076
5.112	12026.076
5.114	13965.076
5.116	14892.076
5.118	16172.076
5.120	15868.076
5.122	14470.076
5.124	13124.076
5.126	12543.076
5.128	11454.076
5.130	10658.076
5.132	9446.076
5.134	8851.076
5.136	8253.076
5.138	6903.076
5.140	5922.076
5.142	6118.076
5.144	8446.076
5.146	10412.076
5.148	11303.076
5.150	11540.076
5.152	15836.076
5.154	17320.076
5.156	17801.076
5.158	18046.076
5.160	17562.076
5.162	17086.076
5.164	15682.076
5.166	14370.076
5.168	12627.076
5.170	10946.076
5.172	9347.076
5.174	7742.076
5.176	6817.076
5.178	6353.076
5.180	7047.076
5.182	6956.076
5.184	7485.076
5.186	8488.076
5.188	9144.076
5.190	10516.076
5.192	13629.076
5.194	14061.076
5.196	14087.076
5.198	13844.076
5.200	13263.076
5.202	13540.076
5.204	11512.076
5.206	9352.076
5.208	8108.076
5.210	6451.076
5.212	4655.076
5.214	3960.076
5.216	2683.076
5.218	924.076
5.220	297.076
5.222	531.076
5.224	1531.076
5.226	1207.076
5.228	620.076
5.230	2441.076
5.232	6321.076
5.234	7688.076
5.236	7915.076
5.238	7407.076
5.240	6206.076
5.242	5778.076
5.244	5420.076
5.246	3663.076
5.248	1705.076
5.250	59.076
5.252	-1520.924
5.254	-2838.924
5.256	-4571.924
5.258	-5362.924
5.260	-4714.924
5.262	-3901.924
5.264	-2749.924
5.266	-2212.924
5.268	-1811.924
5.270	-393.924
5.272	2356.076
5.274	2946.076
5.276	3121.076
5.278	2969.076
5.280	2721.076
5.282	2576.076
5.284	1460.076
5.286	-526.924
5.288	-1659.924
5.290	-3038.924
5.292	-4580.924
5.294	-5780.924
5.296	-6376.924
5.298	-6537.924
5.300	-6770.924
5.302	-7132.924
5.304	-6593.924
5.306	-5249.924
5.308	-4758.924
5.310	-3582.924
5.312	-386.924
5.314	1905.076
5.316	2240.076
5.318	2005.076
5.320	1653.076
5.322	790.076
5.324	467.076
5.326	225.076
5.328	-1166.924
5.330	-3761.924
5.332	-6123.924
5.334	-6356.924
5.336	-6752.924
5.338	-7278.924
5.340	-6825.924
5.342	-5954.924
5.344	-4809.924
5.346	-4887.924
5.348	-4604.924
5.350	-1083.924
5.352	811.076
5.354	1402.076
5.356	2162.076
5.358	1715.076
5.360	317.076
5.362	-210.924
5.364	-1147.924
5.366	-1314.924
5.368	-2569.924
5.370	-4275.924
5.372	-5752.924
5.374	-6884.924
5.376	-7507.924
5.378	-6882.924
5.380	-7094.924
5.382	-6531.924
5.384	-5079.924
5.386	-5334.924
5.388	-3921.924
5.390	101.076
5.392	925.076
5.394	425.076
5.396	731.076
5.398	733.076
5.400	58.076
5.402	-454.924
5.404	-1631.924
5.406	-2629.924
5.408	-4123.924
5.410	-5296.924
5.412	-5914.924
5.414	-6387.924
5.416	-8014.924
5.418	-9678.924
5.420	-9194.924
5.422	-7229.924
5.424	-5718.924
5.426	-6899.924
5.428	-6019.924
5.430	-1758.924
5.432	888.076
5.434	-144.924
5.436	-734.924
5.438	1182.076
5.440	2026.076
5.442	527.076
5.444	-578.924
5.446	-1589.924
5.448	-3248.924
5.450	-4753.924
5.452	-6254.924
5.454	-6990.924
5.456	-7641.924
5.458	-7607.924
5.460	-7146.924
5.462	-7061.924
5.464	-6123.924
5.466	-6263.924
5.468	-4473.924
5.470	-1458.924
5.472	-656.924
5.474	-201.924
5.476	1180.076
5.478	936.076
5.480	946.076
5.482	831.076
5.484	207.076
5.486	-942.924
5.488	-2378.924
5.490	-3824.924
5.492	-6427.924
5.494	-8284.924
5.496	-8634.924
5.498	-8789.924
5.500	-9202.924
5.502	-7968.924
5.504	-5980.924
5.506	-5780.924
5.508	-4139.924
5.510	-1158.924
5.512	228.076
5.514	68.076
5.516	1146.076
5.518	2140.076
5.520	1740.076
5.522	303.076
5.524	-851.924
5.526	-1584.924
5.528	-3718.924
5.530	-6002.924
5.532	-6302.924
5.534	-6293.924
5.536	-6999.924
5.538	-7664.924
5.540	-7924.924
5.542	-6549.924
5.544	-4892.924
5.546	-5062.924
5.548	-3432.924
5.550	-78.924
5.552	1556.076
5.554	1598.076
5.556	1112.076
5.558	1328.076
5.560	670.076
5.562	-342.924
5.564	-1391.924
5.566	-2488.924
5.568	-4259.924
5.570	-5139.924
5.572	-6036.924
5.574	-6869.924
5.576	-7391.924
5.578	-6746.924
5.580	-7078.924
5.582	-6603.924
5.584	-7051.924
5.586	-7071.924
5.588	-2099.924
5.590	270.076
5.592	700.076
5.594	1031.076
5.596	1442.076
5.598	1591.076
5.600	518.076
5.602	-541.924
5.604	-124.924
5.606	-216.924
5.608	-2403.924
5.610	-2826.924
5.612	-4049.924
5.614	-5827.924
5.616	-7294.924
5.618	-7711.924
5.620	-7627.924
5.622	-6578.924
5.624	-5562.924
5.626	-4267.924
5.628	-1790.924
5.630	140.076
5.632	718.076
5.634	1135.076
5.636	1415.076
5.638	875.076
5.640	914.076
5.642	453.076
5.644	-1442.924
5.646	-1961.924
5.648	-1533.924
5.650	-2697.924
5.652	-3958.924
5.654	-5313.924
5.656	-6272.924
5.658	-6601.924
5.660	-6735.924
5.662	-5814.924
5.664	-5838.924
5.666	-5030.924
5.668	-2358.924
5.670	-213.924
5.672	903.076
5.674	1381.076
5.676	1910.076
5.678	1600.076
5.680	792.076
5.682	-217.924
5.684	-1090.924
5.686	-2502.924
5.688	-4418.924
5.690	-5126.924
5.692	-5444.924
5.694	-6382.924
5.696	-7691.924
5.698	-7766.924
5.700	-6459.924
5.702	-7205.924
5.704	-7179.924
5.706	-5064.924
5.708	-1282.924
5.710	626.076
5.712	859.076
5.714	1065.076
5.716	2528.076
5.718	3221.076
5.720	2126.076
5.722	338.076
5.724	-75.924
5.726	-489.924
5.728	-2221.924
5.730	-4481.924
5.732	-6014.924
5.734	-7203.924
5.736	-7285.924
5.738	-7463.924
5.740	-7981.924
5.742	-6871.924
5.744	-6407.924
5.746	-5691.924
5.748	-2630.924
5.750	-983.924
5.752	58.076
5.754	1834.076
5.756	2238.076
5.758	1876.076
5.760	2025.076
5.762	533.076
5.764	-2323.924
5.766	-2528.924
5.768	-2183.924
5.770	-3926.924
5.772	-5498.924
5.774	-6391.924
5.776	-8071.924
5.778	-8023.924
5.780	-6753.924
5.782	-6989.924
5.784	-7099.924
5.786	-4501.924
5.788	-3108.924
5.790	-823.924
5.792	868.076
5.794	476.076
5.796	621.076
5.798	1203.076
5.800	736.076
5.802	-846.924
5.804	-1270.924
5.806	-1936.924
5.808	-3045.924
5.810	-4178.924
5.812	-5619.924
5.814	-6400.924
5.816	-7532.924
5.818	-8059.924
5.820	-7668.924
5.822	-6969.924
5.824	-5911.924
5.826	-3178.924
5.828	-2154.924
5.830	-869.924
5.832	1068.076
5.834	1692.076
5.836	1742.076
5.838	1046.076
5.840	894.076
5.842	1013.076
5.844	731.076
5.846	-636.924
5.848	-3177.924
5.850	-5471.924
5.852	-6253.924
5.854	-7078.924
5.856	-7733.924
5.858	-7616.924
5.860	-8017.924
5.862	-8487.924
5.864	-6995.924
5.866	-4028.924
5.868	-2400.924
5.870	-573.924
5.872	307.076
5.874	1298.076
5.876	2000.076
5.878	1416.076
5.880	1272.076
5.882	501.076
5.884	-734.924
5.886	-1913.924
5.888	-3584.924
5.890	-5563.924
5.892	-6300.924
5.894	-7081.924
5.896	-8258.924
5.898	-9276.924
5.900	-9278.924
5.902	-8705.924
5.904	-6309.924
5.906	-3700.924
5.908	-2017.924
5.910	373.076
5.912	2027.076
5.914	2274.076
5.916	1336.076
5.918	824.076
5.920	627.076
5.922	-178.924
5.924	-766.924
5.926	-1210.924
5.928	-2700.924
5.930	-5343.924
5.932	-5621.924
5.934	-5918.924
5.936	-7284.924
5.938	-8046.924
5.940	-7819.924
5.942	-7845.924
5.944	-7401.924
5.946	-5266.924
5.948	-2994.924
5.950	-773.924
5.952	404.076
5.954	920.076
5.956	1420.076
5.958	1165.076
5.960	46.076
5.962	-284.924
5.964	-733.924
5.966	-2030.924
5.968	-3506.924
5.970	-4842.924
5.972	-6597.924
5.974	-7343.924
5.976	-7421.924
5.978	-7136.924
5.980	-7649.924
5.982	-7765.924
5.984	-4251.924
5.986	-2831.924
5.988	-1842.924
5.990	-256.924
5.992	781.076
5.994	1597.076
5.996	2305.076
5.998	1617.076
6.000	517.076
6.002	-774.924
6.004	-1569.924
6.006	-2364.924
6.008	-3858.924
6.010	-5914.924
6.012	-6119.924
6.014	-6715.924
6.016	-8840.924
6.018	-9593.924
6.020	-9018.924
6.022	-6237.924
6.024	-3489.924
6.026	-3309.924
6.028	-1473.924
6.030	535.076
6.032	694.076
6.034	855.076
6.036	1840.076
6.038	1540.076
6.040	928.076
6.042	-74.924
6.044	-294.924
6.046	-1044.924
6.048	-2265.924
6.050	-3714.924
6.052	-4431.924
6.054	-5509.924
6.056	-6285.924
6.058	-6698.924
6.060	-7251.924
6.062	-5608.924
6.064	-1903.924
6.066	-247.924
6.068	555.076
6.070	1157.076
6.072	2156.076
6.074	3248.076
6.076	4112.076
6.078	5145.076
6.080	5441.076
6.082	4137.076
6.084	1769.076
6.086	-256.924
6.088	-1400.924
6.090	-2597.924
6.092	-3411.924
6.094	-3879.924
6.096	-4864.924
6.098	-5191.924
6.100	-5592.924
6.102	-4746.924
6.104	-2073.924
6.106	395.076
6.108	993.076
6.110	1696.076
6.112	2640.076
6.114	3537.076
6.116	3992.076
6.118	3453.076
6.120	3213.076
6.122	3519.076
6.124	2416.076
6.126	-664.924
6.128	-2650.924
6.130	-4558.924
6.132	-4873.924
6.134	-5243.924
6.136	-6179.924
6.138	-6139.924
6.140	-6624.924
6.142	-6390.924
6.144	-3523.924
6.146	-1089.924
6.148	593.076
6.150	1856.076
6.152	1244.076
6.154	1793.076
6.156	3665.076
6.158	3841.076
6.160	2059.076
6.162	-187.924
6.164	-1401.924
6.166	-2511.924
6.168	-4329.924
6.170	-6899.924
6.172	-8046.924
6.174	-8783.924
6.176	-9086.924
6.178	-8360.924
6.180	-8732.924
6.182	-5243.924
6.184	-3979.924
6.186	-4214.924
6.188	-3570.924
6.190	-1232.924
6.192	455.076
6.194	1941.076
6.196	2164.076
6.198	1834.076
6.200	448.076
6.202	-663.924
6.204	-1593.924
6.206	-3678.924
6.208	-5976.924
6.210	-6579.924
6.212	-7139.924
6.214	-8083.924
6.216	-8136.924
6.218	-8971.924
6.220	-7810.924
6.222	-4213.924
6.224	-4291.924
6.226	-3836.924
6.228	-2386.924
6.230	-584.924
6.232	678.076
6.234	1667.076
6.236	1285.076
6.238	489.076
6.240	-346.924
6.242	-1012.924
6.244	-842.924
6.246	-1464.924
6.248	-2884.924
6.250	-4219.924
6.252	-5312.924
6.254	-6220.924
6.256	-6656.924
6.258	-7829.924
6.260	-7503.924
6.262	-5091.924
6.264	-5317.924
6.266	-4224.924
6.268	-1296.924
6.270	1841.076
6.272	4205.076
6.274	5984.076
6.276	7911.076
6.278	9965.076
6.280	11444.076
6.282	12337.076
6.284	14081.076
6.286	14818.076
6.288	14896.076
6.290	15156.076
6.292	17412.076
6.294	19785.076
6.296	21408.076
6.298	22416.076
6.300	24543.076
6.302	28856.076
6.304	31931.076
6.306	35505.076
6.308	39387.076
6.310	43047.076
6.312	43231.076
6.314	40734.076
6.316	37532.076
6.318	33108.076
6.320	27895.076
6.322	23873.076
6.324	19882.076
6.326	14178.076
6.328	8494.076
6.330	4536.076
6.332	2026.076
6.334	-517.924
6.336	-2157.924
6.338	-3351.924
6.340	-3411.924
6.342	-1628.924
6.344	-1607.924
6.346	-2003.924
6.348	-1046.924
6.350	174.076
6.352	830.076
6.354	1485.076
6.356	1340.076
6.358	828.076
6.360	312.076
6.362	-1594.924
6.364	-3533.924
6.366	-5239.924
6.368	-6833.924
6.370	-8406.924
6.372	-9601.924
6.374	-10813.924
6.376	-10963.924
6.378	-12574.924
6.380	-13162.924
6.382	-10293.924
6.384	-7503.924
6.386	-6151.924
6.388	-4774.924
6.390	-3496.924
6.392	-2378.924
6.394	-1811.924
6.396	-664.924
6.398	-208.924
6.400	-817.924
6.402	-704.924
6.404	-1740.924
6.406	-3155.924
6.408	-3334.924
6.410	-4716.924
6.412	-5747.924
6.414	-6556.924
6.416	-7721.924
6.418	-8142.924
6.420	-6263.924
6.422	-5747.924
6.424	-5301.924
6.426	-4523.924
6.428	-2281.924
6.430	-177.924
6.432	260.076
6.434	1385.076
6.436	2083.076
6.438	1928.076
6.440	953.076
6.442	-299.924
6.444	-1481.924
6.446	-3547.924
6.448	-4666.924
6.450	-5148.924
6.452	-5804.924
6.454	-6054.924
6.456	-7866.924
6.458	-8582.924
6.460	-5868.924
6.462	-4939.924
6.464	-4768.924
6.466	-3831.924
6.468	-1857.924
6.470	-117.924
6.472	395.076
6.474	2139.076
6.476	2312.076
6.478	1800.076
6.480	1556.076
6.482	403.076
6.484	-1503.924
6.486	-3394.924
6.488	-5116.924
6.490	-5676.924
6.492	-6009.924
6.494	-6353.924
6.496	-6527.924
6.498	-5901.924
6.500	-3987.924
6.502	-3553.924
6.504	-2682.924
6.506	-2491.924
6.508	-2026.924
6.510	-45.924
6.512	1562.076
6.514	2310.076
6.516	2181.076
6.518	2183.076
6.520	2408.076
6.522	1335.076
6.524	-190.924
6.526	-1821.924
6.528	-3428.924
6.530	-4526.924
6.532	-5381.924
6.534	-6267.924
6.536	-7483.924
6.538	-6922.924
6.540	-4671.924
6.542	-3698.924
6.544	-3121.924
6.546	-2411.924
6.548	-1342.924
6.550	518.076
6.552	2915.076
6.554	4121.076
6.556	3515.076
6.558	3051.076
6.560	1936.076
6.562	507.076
6.564	-832.924
6.566	-2217.924
6.568	-2885.924
6.570	-3686.924
6.572	-5179.924
6.574	-6447.924
6.576	-8893.924
6.578	-9054.924
6.580	-6015.924
6.582	-3828.924
6.584	-2748.924
6.586	-224.924
6.588	2653.076
6.590	4668.076
6.592	5173.076
6.594	5476.076
6.596	5685.076
6.598	5235.076
6.600	4494.076
6.602	3165.076
6.604	1721.076
6.606	-391.924
6.608	-1689.924
6.610	-2204.924
6.612	-2771.924
6.614	-4103.924
6.616	-4973.924
6.618	-2053.924
6.620	-732.924
6.622	-734.924
6.624	-48.924
6.626	1638.076
6.628	3303.076
6.630	4412.076
6.632	4866.076
6.634	5554.076
6.636	5751.076
6.638	5563.076
6.640	4220.076
6.642	2981.076
6.644	2658.076
6.646	1102.076
6.648	-956.924
6.650	-1464.924
6.652	-746.924
6.654	-1671.924
6.656	-2629.924
6.658	-1316.924
6.660	20.076
6.662	1465.076
6.664	2691.076
6.666	3847.076
6.668	5560.076
6.670	6700.076
6.672	6820.076
6.674	8216.076
6.676	8951.076
6.678	8500.076
6.680	7321.076
6.682	6261.076
6.684	5575.076
6.686	4677.076
6.688	3374.076
6.690	2273.076
6.692	900.076
6.694	-1385.924
6.696	-1691.924
6.698	434.076
6.700	2242.076
6.702	3760.076
6.704	5109.076
6.706	6014.076
6.708	7609.076
6.710	9161.076
6.712	10195.076
6.714	11703.076
6.716	12789.076
6.718	12836.076
6.720	11771.076
6.722	10447.076
6.724	8995.076
6.726	7730.076
6.728	6881.076
6.730	6173.076
6.732	5162.076
6.734	3398.076
6.736	2796.076
6.738	4183.076
6.740	5935.076
6.742	6733.076
6.744	7268.076
6.746	9503.076
6.748	12794.076
6.750	14481.076
6.752	14951.076
6.754	14591.076
6.756	14940.076
6.758	14908.076
6.760	13657.076
6.762	12888.076
6.764	12384.076
6.766	11515.076
6.768	10228.076
6.770	8981.076
6.772	7995.076
6.774	5510.076
6.776	5543.076
6.778	7795.076
6.780	8373.076
6.782	9295.076
6.784	10170.076
6.786	11412.076
6.788	13513.076
6.790	14835.076
6.792	15490.076
6.794	15351.076
6.796	14677.076
6.798	14085.076
6.800	13279.076
6.802	11970.076
6.804	11314.076
6.806	11203.076
6.808	9727.076
6.810	8128.076
6.812	6584.076
6.814	4978.076
6.816	5849.076
6.818	5650.076
6.820	5591.076
6.822	6665.076
6.824	7590.076
6.826	8718.076
6.828	10139.076
6.830	10448.076
6.832	10816.076
6.834	11939.076
6.836	11395.076
6.838	9699.076
6.840	8481.076
6.842	7167.076
6.844	5830.076
6.846	4555.076
6.848	2338.076
6.850	570.076
6.852	-841.924
6.854	-2126.924
6.856	748.076
6.858	991.076
6.860	-273.924
6.862	-403.924
6.864	560.076
6.866	2877.076
6.868	4374.076
6.870	4185.076
6.872	4509.076
6.874	5182.076
6.876	4820.076
6.878	4018.076
6.880	3163.076
6.882	3010.076
6.884	2836.076
6.886	915.076
6.888	-2714.924
6.890	-3441.924
6.892	-4734.924
6.894	-6156.924
6.896	-5007.924
6.898	-4558.924
6.900	-4260.924
6.902	-3201.924
6.904	-1861.924
6.906	-928.924
6.908	495.076
6.910	1054.076
6.912	2273.076
6.914	3548.076
6.916	2577.076
6.918	1780.076
6.920	916.076
6.922	-645.924
6.924	-2472.924
6.926	-4414.924
6.928	-5784.924
6.930	-6974.924
6.932	-8281.924
6.934	-7688.924
6.936	-6225.924
6.938	-7353.924
6.940	-7780.924
6.942	-6719.924
6.944	-5358.924
6.946	-2667.924
6.948	521.076
6.950	1626.076
6.952	2058.076
6.954	2765.076
6.956	2544.076
6.958	1305.076
6.960	-466.924
6.962	-1843.924
6.964	-3025.924
6.966	-3922.924
6.968	-5112.924
6.970	-6810.924
6.972	-9571.924
6.974	-9975.924
6.976	-8361.924
6.978	-7604.924
6.980	-6067.924
6.982	-5118.924
6.984	-3510.924
6.986	-1533.924
6.988	-683.924
6.990	37.076
6.992	923.076
6.994	1194.076
6.996	896.076
6.998	-194.924
7.000	-2078.924
7.002	-2759.924
7.004	-3700.924
7.006	-3824.924
7.008	-4303.924
7.010	-5789.924
7.012	-7813.924
7.014	-7076.924
7.016	-7429.924
7.018	-8624.924
7.020	-7543.924
7.022	-5336.924
7.024	-2984.924
7.026	-1316.924
7.028	-148.924
7.030	269.076
7.032	108.076
7.034	-162.924
7.036	15.076
7.038	270.076
7.040	17.076
7.042	-862.924
7.044	-3093.924
7.046	-5574.924
7.048	-6386.924
7.050	-6483.924
7.052	-7821.924
7.054	-7988.924
7.056	-8503.924
7.058	-8198.924
7.060	-7568.924
7.062	-6840.924
7.064	-4803.924
7.066	-2286.924
7.068	-606.924
7.070	-38.924
7.072	382.076
7.074	353.076
7.076	985.076
7.078	139.076
7.080	-1864.924
7.082	-1727.924
7.084	-1829.924
7.086	-3572.924
7.088	-5878.924
7.090	-7956.924
7.092	-8920.924
7.094	-7838.924
7.096	-7843.924
7.098	-6708.924
7.100	-5088.924
7.102	-4467.924
7.104	-3880.924
7.106	-2663.924
7.108	-1295.924
7.110	-73.924
7.112	1281.076
7.114	2010.076
7.116	1808.076
7.118	611.076
7.120	-1821.924
7.122	-2184.924
7.124	-2971.924
7.126	-4988.924
7.128	-6542.924
7.130	-7132.924
7.132	-7576.924
7.134	-7266.924
7.136	-7034.924
7.138	-7233.924
7.140	-7025.924
7.142	-6552.924
7.144	-5026.924
7.146	-3044.924
7.148	-1133.924
7.150	105.076
7.152	837.076
7.154	1233.076
7.156	1723.076
7.158	1741.076
7.160	463.076
7.162	-1431.924
7.164	-3023.924
7.166	-4834.924
7.168	-6406.924
7.170	-8254.924
7.172	-9368.924
7.174	-9073.924
7.176	-9621.924
7.178	-8998.924
7.180	-6903.924
7.182	-5129.924
7.184	-4704.924
7.186	-3376.924
7.188	-1191.924
7.190	240.076
7.192	1355.076
7.194	2310.076
7.196	1957.076
7.198	1369.076
7.200	-389.924
7.202	-1995.924
7.204	-2589.924
7.206	-3325.924
7.208	-5421.924
7.210	-7676.924
7.212	-8647.924
7.214	-8213.924
7.216	-7897.924
7.218	-6986.924
7.220	-6261.924
7.222	-6026.924
7.224	-5484.924
7.226	-2472.924
7.228	970.076
7.230	1491.076
7.232	1570.076
7.234	1680.076
7.236	1438.076
7.238	1339.076
7.240	1115.076
7.242	-333.924
7.244	-3523.924
7.246	-4632.924
7.248	-6118.924
7.250	-7988.924
7.252	-6247.924
7.254	-6399.924
7.256	-6976.924
7.258	-6997.924
7.260	-5605.924
7.262	-4208.924
7.264	-2893.924
7.266	-1962.924
7.268	-253.924
7.270	1001.076
7.272	1843.076
7.274	2235.076
7.276	2054.076
7.278	615.076
7.280	-1365.924
7.282	-2559.924
7.284	-3178.924
7.286	-4441.924
7.288	-6843.924
7.290	-7359.924
7.292	-6173.924
7.294	-5987.924
7.296	-6296.924
7.298	-7029.924
7.300	-6163.924
7.302	-4963.924
7.304	-4046.924
7.306	-3234.924
7.308	-1495.924
7.310	403.076
7.312	1137.076
7.314	1325.076
7.316	1611.076
7.318	986.076
7.320	-113.924
7.322	-1465.924
7.324	-3474.924
7.326	-4138.924
7.328	-5662.924
7.330	-6559.924
7.332	-6010.924
7.334	-7333.924
7.336	-8269.924
7.338	-7832.924
7.340	-6553.924
7.342	-5657.924
7.344	-4229.924
7.346	-2313.924
7.348	-539.924
7.350	426.076
7.352	1533.076
7.354	1974.076
7.356	1407.076
7.358	424.076
7.360	-808.924
7.362	-1581.924
7.364	-2882.924
7.366	-4532.924
7.368	-7313.924
7.370	-8149.924
7.372	-7149.924
7.374	-7495.924
7.376	-7221.924
7.378	-6612.924
7.380	-5668.924
7.382	-5162.924
7.384	-3751.924
7.386	-2513.924
7.388	-1283.924
7.390	839.076
7.392	1265.076
7.394	405.076
7.396	1049.076
7.398	748.076
7.400	-782.924
7.402	-1976.924
7.404	-2765.924
7.406	-4250.924
7.408	-6639.924
7.410	-7248.924
7.412	-6684.924
7.414	-7714.924
7.416	-8282.924
7.418	-7741.924
7.420	-6781.924
7.422	-5714.924
7.424	-4013.924
7.426	-2147.924
7.428	-121.924
7.430	781.076
7.432	1125.076
7.434	1495.076
7.436	1139.076
7.438	309.076
7.440	-1025.924
7.442	-2200.924
7.444	-3678.924
7.446	-5539.924
7.448	-8076.924
7.450	-7316.924
7.452	-7831.924
7.454	-8385.924
7.456	-7619.924
7.458	-6920.924
7.460	-6403.924
7.462	-4675.924
7.464	-2374.924
7.466	-398.924
7.468	540.076
7.470	834.076
7.472	1198.076
7.474	1068.076
7.476	-33.924
7.478	-1121.924
7.480	-1601.924
7.482	-1489.924
7.484	-1828.924
7.486	-4706.924
7.488	-6854.924
7.490	-6989.924
7.492	-8738.924
7.494	-9825.924
7.496	-9498.924
7.498	-7779.924
7.500	-6493.924
7.502	-5319.924
7.504	-2981.924
7.506	-1099.924
7.508	-508.924
7.510	287.076
7.512	1334.076
7.514	1824.076
7.516	1901.076
7.518	379.076
7.520	-1216.924
7.522	-1734.924
7.524	-3291.924
7.526	-6162.924
7.528	-7561.924
7.530	-7090.924
7.532	-7519.924
7.534	-8334.924
7.536	-8795.924
7.538	-8163.924
7.540	-6757.924
7.542	-5506.924
7.544	-4086.924
7.546	-2484.924
7.548	-161.924
7.550	726.076
7.552	1053.076
7.554	1608.076
7.556	2046.076
7.558	819.076
7.560	-109.924
7.562	-478.924
7.564	-2036.924
7.566	-5008.924
7.568	-7180.924
7.570	-6511.924
7.572	-6896.924
7.574	-8094.924
7.576	-8387.924
7.578	-7071.924
7.580	-5633.924
7.582	-4817.924
7.584	-3625.924
7.586	-1846.924
7.588	-126.924
7.590	279.076
7.592	829.076
7.594	1423.076
7.596	1254.076
7.598	-73.924
7.600	-2383.924
7.602	-3065.924
7.604	-4024.924
7.606	-7538.924
7.608	-9424.924
7.610	-8014.924
7.612	-7964.924
7.614	-7376.924
7.616	-6897.924
7.618	-5323.924
7.620	-3961.924
7.622	-3185.924
7.624	-1498.924
7.626	1040.076
7.628	2033.076
7.630	1721.076
7.632	2367.076
7.634	3718.076
7.636	3869.076
7.638	2252.076
7.640	1333.076
7.642	246.076
7.644	-2693.924
7.646	-4775.924
7.648	-3181.924
7.650	-3195.924
7.652	-4830.924
7.654	-5284.924
7.656	-5952.924
7.658	-5726.924
7.660	-4241.924
7.662	-2022.924
7.664	396.076
7.666	2436.076
7.668	3439.076
7.670	3715.076
7.672	4596.076
7.674	5546.076
7.676	5233.076
7.678	3144.076
7.680	2496.076
7.682	1745.076
7.684	-1326.924
7.686	-4073.924
7.688	-3533.924
7.690	-3333.924
7.692	-3652.924
7.694	-4396.924
7.696	-5718.924
7.698	-5527.924
7.700	-3943.924
7.702	-2496.924
7.704	-799.924
7.706	1144.076
7.708	2568.076
7.710	2850.076
7.712	3011.076
7.714	2757.076
7.716	1787.076
7.718	85.076
7.720	-1240.924
7.722	-2412.924
7.724	-4689.924
7.726	-6469.924
7.728	-6840.924
7.730	-7104.924
7.732	-6949.924
7.734	-7854.924
7.736	-8356.924
7.738	-7089.924
7.740	-5609.924
7.742	-3843.924
7.744	-1730.924
7.746	-394.924
7.748	697.076
7.750	485.076
7.752	349.076
7.754	988.076
7.756	1338.076
7.758	336.076
7.760	-1313.924
7.762	-3112.924
7.764	-5795.924
7.766	-6970.924
7.768	-5809.924
7.770	-7206.924
7.772	-9611.924
7.774	-8293.924
7.776	-6858.924
7.778	-6581.924
7.780	-5919.924
7.782	-4642.924
7.784	-3201.924
7.786	-1797.924
7.788	-559.924
7.790	545.076
7.792	698.076
7.794	428.076
7.796	118.076
7.798	-740.924
7.800	-1620.924
7.802	-2775.924
7.804	-5135.924
7.806	-6249.924
7.808	-6221.924
7.810	-7709.924
7.812	-8859.924
7.814	-9044.924
7.816	-8338.924
7.818	-6793.924
7.820	-6494.924
7.822	-5843.924
7.824	-3694.924
7.826	-698.924
7.828	1100.076
7.830	1650.076
7.832	1640.076
7.834	1390.076
7.836	643.076
7.838	-431.924
7.840	-1564.924
7.842	-2551.924
7.844	-4372.924
7.846	-3454.924
7.848	-211.924
7.850	412.076
7.852	1335.076
7.854	3176.076
7.856	4491.076
7.858	7738.076
7.860	11766.076
7.862	15655.076
7.864	19689.076
7.866	23842.076
7.868	27582.076
7.870	32293.076
7.872	35400.076
7.874	37525.076
7.876	39665.076
7.878	40432.076
7.880	41733.076
7.882	41461.076
7.884	39517.076
7.886	37151.076
7.888	32156.076
7.890	26993.076
7.892	22251.076
7.894	18135.076
7.896	14275.076
7.898	10808.076
7.900	6916.076
7.902	4182.076
7.904	3481.076
7.906	4693.076
7.908	5546.076
7.910	5803.076
7.912	6002.076
7.914	5400.076
7.916	3645.076
7.918	1590.076
7.920	-780.924
7.922	-3957.924
7.924	-5572.924
7.926	-5378.924
7.928	-5923.924
7.930	-7685.924
7.932	-9561.924
7.934	-10357.924
7.936	-10373.924
7.938	-9379.924
7.940	-8534.924
7.942	-7528.924
7.944	-6786.924
7.946	-5246.924
7.948	-5196.924
7.950	-4482.924
7.952	-2491.924
7.954	-1849.924
7.956	-1823.924
7.958	-2709.924
7.960	-4712.924
7.962	-6483.924
7.964	-7759.924
7.966	-7865.924
7.968	-7464.924
7.970	-7658.924
7.972	-8771.924
7.974	-8404.924
7.976	-7702.924
7.978	-6992.924
7.980	-6340.924
7.982	-3971.924
7.984	-2144.924
7.986	-1464.924
7.988	-826.924
7.990	353.076
7.992	1132.076
7.994	578.076
7.996	-298.924
7.998	-527.924
8.000	-686.924
8.002	-3557.924
8.004	-5697.924
8.006	-5676.924
8.008	-6021.924
8.010	-6466.924
8.012	-7556.924
8.014	-8422.924
8.016	-8357.924
8.018	-7316.924
8.020	-6708.924
8.022	-3936.924
8.024	-1274.924
8.026	-446.924
8.028	-142.924
8.030	1809.076
8.032	3091.076
8.034	2385.076
8.036	1436.076
8.038	135.076
8.040	-1109.924
8.042	-3869.924
8.044	-4888.924
8.046	-4444.924
8.048	-5556.924
8.050	-7520.924
8.052	-8988.924
8.054	-9559.924
8.056	-8152.924
8.058	-5956.924
8.060	-4528.924
8.062	-3668.924
8.064	-2728.924
8.066	-861.924
8.068	615.076
8.070	858.076
8.072	2152.076
8.074	2023.076
8.076	1276.076
8.078	616.076
8.080	-892.924
8.082	-3601.924
8.084	-3603.924
8.086	-4509.924
8.088	-4700.924
8.090	-5204.924
8.092	-6161.924
8.094	-6925.924
8.096	-6709.924
8.098	-5619.924
8.100	-4617.924
8.102	-3815.924
8.104	-2573.924
8.106	-3.924
8.108	1963.076
8.110	3386.076
8.112	3943.076
8.114	3193.076
8.116	3093.076
8.118	2090.076
8.120	-190.924
8.122	-1630.924
8.124	-2154.924
8.126	-4853.924
8.128	-5584.924
8.130	-4393.924
8.132	-4351.924
8.134	-4556.924
8.136	-4617.924
8.138	-5149.924
8.140	-4978.924
8.142	-3562.924
8.144	-1237.924
8.146	841.076
8.148	2130.076
8.150	2846.076
8.152	3576.076
8.154	4661.076
8.156	4297.076
8.158	2433.076
8.160	106.076
8.162	-635.924
8.164	-1111.924
8.166	-2618.924
8.168	-2194.924
8.170	-4057.924
8.172	-6126.924
8.174	-5594.924
8.176	-4099.924
8.178	-2796.924
8.180	-2016.924
8.182	-918.924
8.184	527.076
8.186	2912.076
8.188	5067.076
8.190	5332.076
8.192	4730.076
8.194	4108.076
8.196	3990.076
8.198	3266.076
8.200	981.076
8.202	-1063.924
8.204	-902.924
8.206	-1692.924
8.208	-1533.924
8.210	-1823.924
8.212	-2968.924
8.214	-3264.924
8.216	-2353.924
8.218	-1045.924
8.220	86.076
8.222	1695.076
8.224	3339.076
8.226	5117.076
8.228	5740.076
8.230	6146.076
8.232	7116.076
8.234	8008.076
8.236	7279.076
8.238	4920.076
8.240	3181.076
8.242	3230.076
8.244	3996.076
8.246	2079.076
8.248	816.076
8.250	66.076
8.252	-476.924
8.254	-954.924
8.256	-704.924
8.258	318.076
8.260	1185.076
8.262	3632.076
8.264	5278.076
8.266	6803.076
8.268	9126.076
8.270	11056.076
8.272	11400.076
8.274	10337.076
8.276	9293.076
8.278	7928.076
8.280	5870.076
8.282	6520.076
8.284	5403.076
8.286	3809.076
8.288	2706.076
8.290	2872.076
8.292	2662.076
8.294	2561.076
8.296	3713.076
8.298	5361.076
8.300	6330.076
8.302	8170.076
8.304	9720.076
8.306	11365.076
8.308	13096.076
8.310	13854.076
8.312	14427.076
8.314	14262.076
8.316	13877.076
8.318	12078.076
8.320	10568.076
8.322	11210.076
8.324	10164.076
8.326	8235.076
8.328	7263.076
8.330	6027.076
8.332	4930.076
8.334	5465.076
8.336	6526.076
8.338	7693.076
8.340	9289.076
8.342	10184.076
8.344	11292.076
8.346	13082.076
8.348	14055.076
8.350	14985.076
8.352	15743.076
8.354	15600.076
8.356	14277.076
8.358	12498.076
8.360	11355.076
8.362	11263.076
8.364	9293.076
8.366	8746.076
8.368	9385.076
8.370	7571.076
8.372	5985.076
8.374	6028.076
8.376	6669.076
8.378	7884.076
8.380	8956.076
8.382	11345.076
8.384	13028.076
8.386	12558.076
8.388	12251.076
8.390	12542.076
8.392	12727.076
8.394	12814.076
8.396	12280.076
8.398	9888.076
8.400	8505.076
8.402	8219.076
8.404	6428.076
8.406	3633.076
8.408	2018.076
8.410	1803.076
8.412	1467.076
8.414	750.076
8.416	978.076
8.418	2416.076
8.420	2970.076
8.422	3540.076
8.424	5025.076
8.426	6576.076
8.428	7058.076
8.430	6151.076
8.432	5756.076
8.434	6238.076
8.436	5215.076
8.438	3038.076
8.440	1485.076
8.442	836.076
8.444	-558.924
8.446	-2326.924
8.448	-4349.924
8.450	-5348.924
8.452	-4856.924
8.454	-4195.924
8.456	-3958.924
8.458	-3730.924
8.460	-3619.924
8.462	-2373.924
8.464	-571.924
8.466	1290.076
8.468	2680.076
8.470	2683.076
8.472	2388.076
8.474	2352.076
8.476	1318.076
8.478	-954.924
8.480	-286.924
8.482	-1432.924
8.484	-3501.924
8.486	-5111.924
8.488	-6321.924
8.490	-7113.924
8.492	-7117.924
8.494	-6939.924
8.496	-6473.924
8.498	-6742.924
8.500	-6873.924
8.502	-4973.924
8.504	-2558.924
8.506	-1009.924
8.508	58.076
8.510	949.076
8.512	690.076
8.514	-437.924
8.516	-3134.924
8.518	-4089.924
8.520	-2394.924
8.522	-1826.924
8.524	-3571.924
8.526	-6027.924
8.528	-7462.924
8.530	-8318.924
8.532	-7126.924
8.534	-5439.924
8.536	-5578.924
8.538	-5829.924
8.540	-4957.924
8.542	-3314.924
8.544	-1613.924
8.546	-526.924
8.548	360.076
8.550	1178.076
8.552	594.076
8.554	-755.924
8.556	-2636.924
8.558	-3368.924
8.560	-2118.924
8.562	-4003.924
8.564	-6585.924
8.566	-7651.924
8.568	-7988.924
8.570	-8535.924
8.572	-8919.924
8.574	-8737.924
8.576	-7841.924
8.578	-6489.924
8.580	-5752.924
8.582	-4506.924
8.584	-3594.924
8.586	-2315.924
8.588	-339.924
8.590	776.076
8.592	1189.076
8.594	1441.076
8.596	-363.924
8.598	-2082.924
8.600	-1524.924
8.602	-2271.924
8.604	-4334.924
8.606	-6557.924
8.608	-7482.924
8.610	-8373.924
8.612	-9129.924
8.614	-9122.924
8.616	-8074.924
8.618	-7160.924
8.620	-5769.924
8.622	-3534.924
8.624	-1438.924
8.626	205.076
8.628	549.076
8.630	392.076
8.632	-381.924
8.634	-1205.924
8.636	-3002.924
8.638	-3021.924
8.640	-1741.924
8.642	-2904.924
8.644	-5618.924
8.646	-7661.924
8.648	-8318.924
8.650	-8439.924
8.652	-8320.924
8.654	-8655.924
8.656	-7834.924
8.658	-6814.924
8.660	-5419.924
8.662	-3536.924
8.664	-1957.924
8.666	-789.924
8.668	-693.924
8.670	-261.924
8.672	44.076
8.674	-388.924
8.676	-2769.924
8.678	-3574.924
8.680	-2844.924
8.682	-3621.924
8.684	-5731.924
8.686	-7806.924
8.688	-8374.924
8.690	-8823.924
8.692	-9624.924
8.694	-10264.924
8.696	-9035.924
8.698	-7771.924
8.700	-6692.924
8.702	-4369.924
8.704	-1085.924
8.706	785.076
8.708	1230.076
8.710	1575.076
8.712	1372.076
8.714	-1191.924
8.716	-3039.924
8.718	-1593.924
8.720	-2068.924
8.722	-3353.924
8.724	-5449.924
8.726	-6978.924
8.728	-7230.924
8.730	-8433.924
8.732	-9405.924
8.734	-8818.924
8.736	-7114.924
8.738	-5776.924
8.740	-5089.924
8.742	-3587.924
8.744	-1515.924
8.746	-504.924
8.748	-233.924
8.750	-21.924
8.752	-219.924
8.754	-1946.924
8.756	-2884.924
8.758	-2038.924
8.760	-3274.924
8.762	-4434.924
8.764	-5591.924
8.766	-6612.924
8.768	-7026.924
8.770	-7813.924
8.772	-8941.924
8.774	-9816.924
8.776	-8336.924
8.778	-6801.924
8.780	-5539.924
8.782	-3743.924
8.784	-826.924
8.786	640.076
8.788	819.076
8.790	1639.076
8.792	1343.076
8.794	-1262.924
8.796	-4218.924
8.798	-3153.924
8.800	-2039.924
8.802	-3193.924
8.804	-5648.924
8.806	-6919.924
8.808	-6744.924
8.810	-7609.924
8.812	-8263.924
8.814	-8254.924
8.816	-6998.924
8.818	-6117.924
8.820	-5158.924
8.822	-3886.924
8.824	-1995.924
8.826	-1013.924
8.828	737.076
8.830	1805.076
8.832	955.076
8.834	-1137.924
8.836	-1669.924
8.838	-523.924
8.840	-1978.924
8.842	-4156.924
8.844	-6263.924
8.846	-7524.924
8.848	-8026.924
8.850	-8914.924
8.852	-9039.924
8.854	-9412.924
8.856	-8297.924
8.858	-6080.924
8.860	-4446.924
8.862	-2913.924
8.864	-1303.924
8.866	-1212.924
8.868	-641.924
8.870	408.076
8.872	1007.076
8.874	-1089.924
8.876	-2174.924
8.878	-1785.924
8.880	-3559.924
8.882	-4950.924
8.884	-4615.924
8.886	-5834.924
8.888	-7664.924
8.890	-8161.924
8.892	-7664.924
8.894	-8255.924
8.896	-7222.924
8.898	-5617.924
8.900	-4504.924
8.902	-3514.924
8.904	-2116.924
8.906	-948.924
8.908	-181.924
8.910	122.076
8.912	-466.924
8.914	-1148.924
8.916	-432.924
8.918	-1006.924
8.920	-2827.924
8.922	-5018.924
8.924	-6654.924
8.926	-7135.924
8.928	-7635.924
8.930	-8474.924
8.932	-8868.924
8.934	-7945.924
8.936	-6479.924
8.938	-5401.924
8.940	-3769.924
8.942	-2214.924
8.944	-804.924
8.946	397.076
8.948	-64.924
8.950	-115.924
8.952	-203.924
8.954	-1118.924
8.956	-995.924
8.958	-1921.924
8.960	-3653.924
8.962	-5355.924
8.964	-7594.924
8.966	-7499.924
8.968	-7163.924
8.970	-8054.924
8.972	-8611.924
8.974	-8840.924
8.976	-7997.924
8.978	-7559.924
8.980	-6291.924
8.982	-2854.924
8.984	472.076
8.986	1926.076
8.988	1860.076
8.990	1533.076
8.992	220.076
8.994	-861.924
8.996	-998.924
8.998	-1287.924
9.000	-2055.924
9.002	-3195.924
9.004	-5208.924
9.006	-6345.924
9.008	-7251.924
9.010	-8351.924
9.012	-8569.924
9.014	-8168.924
9.016	-7765.924
9.018	-7506.924
9.020	-5918.924
9.022	-4715.924
9.024	-3684.924
9.026	-1227.924
9.028	592.076
9.030	429.076
9.032	-986.924
9.034	-416.924
9.036	-21.924
9.038	-531.924
9.040	-1443.924
9.042	-2981.924
9.044	-5045.924
9.046	-6765.924
9.048	-7823.924
9.050	-8159.924
9.052	-7863.924
9.054	-7575.924
9.056	-7493.924
9.058	-7074.924
9.060	-4646.924
9.062	-2076.924
9.064	-349.924
9.066	-34.924
9.068	261.076
9.070	721.076
9.072	-669.924
9.074	-1379.924
9.076	-452.924
9.078	-655.924
9.080	-2451.924
9.082	-4906.924
9.084	-6509.924
9.086	-6586.924
9.088	-7213.924
9.090	-8566.924
9.092	-8597.924
9.094	-7791.924
9.096	-7112.924
9.098	-6376.924
9.100	-4261.924
9.102	-2625.924
9.104	-1631.924
9.106	-839.924
9.108	324.076
9.110	271.076
9.112	-1119.924
9.114	629.076
9.116	-440.924
9.118	-1621.924
9.120	-2381.924
9.122	-4178.924
9.124	-6014.924
9.126	-6971.924
9.128	-6369.924
9.130	-6138.924
9.132	-7309.924
9.134	-7483.924
9.136	-5548.924
9.138	-2943.924
9.140	-1071.924
9.142	106.076
9.144	1410.076
9.146	2112.076
9.148	2621.076
9.150	2381.076
9.152	1476.076
9.154	1941.076
9.156	295.076
9.158	-1311.924
9.160	-1621.924
9.162	-2484.924
9.164	-3724.924
9.166	-4727.924
9.168	-5105.924
9.170	-5377.924
9.172	-5279.924
9.174	-4759.924
9.176	-3541.924
9.178	-1621.924
9.180	-608.924
9.182	-48.924
9.184	2418.076
9.186	3528.076
9.188	4064.076
9.190	3767.076
9.192	3032.076
9.194	2995.076
9.196	2232.076
9.198	1208.076
9.200	-529.924
9.202	-2932.924
9.204	-4829.924
9.206	-5109.924
9.208	-5658.924
9.210	-6489.924
9.212	-6489.924
9.214	-5706.924
9.216	-4286.924
9.218	-3556.924
9.220	-2694.924
9.222	-1489.924
9.224	-416.924
9.226	491.076
9.228	1175.076
9.230	629.076
9.232	-115.924
9.234	140.076
9.236	-1904.924
9.238	-2768.924
9.240	-4128.924
9.242	-6199.924
9.244	-8422.924
9.246	-9156.924
9.248	-8749.924
9.250	-7564.924
9.252	-7898.924
9.254	-8782.924
9.256	-8216.924
9.258	-7170.924
9.260	-4946.924
9.262	-2789.924
9.264	-738.924
9.266	-342.924
9.268	-453.924
9.270	-701.924
9.272	-315.924
9.274	813.076
9.276	-83.924
9.278	-1755.924
9.280	-3263.924
9.282	-4990.924
9.284	-6788.924
9.286	-7679.924
9.288	-8686.924
9.290	-9339.924
9.292	-8864.924
9.294	-7783.924
9.296	-6901.924
9.298	-6636.924
9.300	-5868.924
9.302	-4095.924
9.304	-1381.924
9.306	310.076
9.308	471.076
9.310	-1659.924
9.312	-2144.924
9.314	-1068.924
9.316	-2161.924
9.318	-2941.924
9.320	-3350.924
9.322	-5511.924
9.324	-7083.924
9.326	-7671.924
9.328	-8394.924
9.330	-7980.924
9.332	-8903.924
9.334	-8161.924
9.336	-5246.924
9.338	-4554.924
9.340	-3368.924
9.342	-2227.924
9.344	616.076
9.346	3681.076
9.348	4581.076
9.350	5486.076
9.352	9825.076
9.354	11358.076
9.356	11276.076
9.358	11713.076
9.360	13026.076
9.362	14197.076
9.364	14530.076
9.366	15874.076
9.368	18255.076
9.370	21042.076
9.372	23691.076
9.374	27083.076
9.376	30789.076
9.378	33755.076
9.380	36371.076
9.382	40225.076
9.384	43378.076
9.386	44910.076
9.388	42006.076
9.390	36765.076
9.392	34146.076
9.394	31592.076
9.396	26418.076
9.398	20117.076
9.400	14733.076
9.402	9768.076
9.404	4355.076
9.406	668.076
9.408	-1792.924
9.410	-2815.924
9.412	-2605.924
9.414	-2554.924
9.416	-2188.924
9.418	-2113.924
9.420	-2193.924
9.422	-2242.924
9.424	-1498.924
9.426	-1073.924
9.428	-2011.924
9.430	-1447.924
9.432	609.076
9.434	267.076
9.436	-1719.924
9.438	-3715.924
9.440	-5353.924
9.442	-7617.924
9.444	-10318.924
9.446	-11455.924
9.448	-13068.924
9.450	-13171.924
9.452	-11894.924
9.454	-10443.924
9.456	-8996.924
9.458	-7357.924
9.460	-5908.924
9.462	-4580.924
9.464	-3855.924
9.466	-2279.924
9.468	-1432.924
9.470	-1718.924
9.472	-186.924
9.474	621.076
9.476	-502.924
9.478	-2024.924
9.480	-4253.924
9.482	-6266.924
9.484	-7474.924
9.486	-8689.924
9.488	-9472.924
9.490	-8940.924
9.492	-7953.924
9.494	-6972.924
9.496	-5489.924
9.498	-4968.924
9.500	-4498.924
9.502	-2383.924
9.504	389.076
9.506	1185.076
9.508	303.076
9.510	251.076
9.512	949.076
9.514	-359.924
9.516	-1889.924
9.518	-2933.924
9.520	-3708.924
9.522	-5041.924
9.524	-6615.924
9.526	-7599.924
9.528	-7954.924
9.530	-7830.924
9.532	-7833.924
9.534	-7172.924
9.536	-6268.924
9.538	-4877.924
9.540	-2914.924
9.542	-1586.924
9.544	-690.924
9.546	-1160.924
9.548	-1882.924
9.550	293.076
9.552	637.076
9.554	-357.924
9.556	-1109.924
9.558	-1484.924
9.560	-2633.924
9.562	-4421.924
9.564	-5849.924
9.566	-6635.924
9.568	-7591.924
9.570	-8671.924
9.572	-8694.924
9.574	-7123.924
9.576	-5079.924
9.578	-4472.924
9.580	-3018.924
9.582	-1005.924
9.584	-230.924
9.586	-1041.924
9.588	-564.924
9.590	1226.076
9.592	2082.076
9.594	2211.076
9.596	1317.076
9.598	177.076
9.600	-1654.924
9.602	-4052.924
9.604	-5548.924
9.606	-5907.924
9.608	-6843.924
9.610	-7039.924
9.612	-6729.924
9.614	-6566.924
9.616	-5893.924
9.618	-4370.924
9.620	-2181.924
9.622	336.076
9.624	1145.076
9.626	-7.924
9.628	1385.076
9.630	2798.076
9.632	2631.076
9.634	2266.076
9.636	1026.076
9.638	255.076
9.640	-1433.924
9.642	-4014.924
9.644	-4779.924
9.646	-4293.924
9.648	-5541.924
9.650	-6430.924
9.652	-6691.924
9.654	-6276.924
9.656	-4826.924
9.658	-3211.924
9.660	-1679.924
9.662	18.076
9.664	2251.076
9.666	2437.076
9.668	2020.076
9.670	3310.076
9.672	3738.076
9.674	4080.076
9.676	3000.076
9.678	474.076
9.680	-2214.924
9.682	-2818.924
9.684	-3223.924
9.686	-3553.924
9.688	-4156.924
9.690	-4440.924
9.692	-3308.924
9.694	-2179.924
9.696	-1778.924
9.698	-467.924
9.700	872.076
9.702	2223.076
9.704	3974.076
9.706	3699.076
9.708	4269.076
9.710	6544.076
9.712	5535.076
9.714	3835.076
9.716	2446.076
9.718	1587.076
9.720	1953.076
9.722	1016.076
9.724	-744.924
9.726	-1765.924
9.728	-2223.924
9.730	-2625.924
9.732	-3368.924
9.734	-2596.924
9.736	-808.924
9.738	341.076
9.740	1361.076
9.742	3774.076
9.744	5350.076
9.746	5536.076
9.748	7939.076
9.750	8408.076
9.752	7774.076
9.754	7275.076
9.756	6295.076
9.758	5036.076
9.760	3375.076
9.762	1819.076
9.764	716.076
9.766	382.076
9.768	35.076
9.770	813.076
9.772	2128.076
9.774	2710.076
9.776	3211.076
9.778	4188.076
9.780	6423.076
9.782	8402.076
9.784	7883.076
9.786	8629.076
9.788	11961.076
9.790	13077.076
9.792	12288.076
9.794	10681.076
9.796	9378.076
9.798	8532.076
9.800	7358.076
9.802	5500.076
9.804	4982.076
9.806	4712.076
9.808	3823.076
9.810	4276.076
9.812	4780.076
9.814	4339.076
9.816	5688.076
9.818	8497.076
9.820	9786.076
9.822	11667.076
9.824	12222.076
9.826	12462.076
9.828	14250.076
9.830	14285.076
9.832	13457.076
9.834	12586.076
9.836	11053.076
9.838	9145.076
9.840	9143.076
9.842	9231.076
9.844	8398.076
9.846	7743.076
9.848	6218.076
9.850	5270.076
9.852	6188.076
9.854	7446.076
9.856	9628.076
9.858	10573.076
9.860	11570.076
9.862	13788.076
9.864	14015.076
9.866	14483.076
9.868	16232.076
9.870	15797.076
9.872	14857.076
9.874	13665.076
9.876	12365.076
9.878	11076.076
9.880	9895.076
9.882	8413.076
9.884	7735.076
9.886	6756.076
9.888	4873.076
9.890	3385.076
9.892	2728.076
9.894	3349.076
9.896	5738.076
9.898	8028.076
9.900	8997.076
9.902	10356.076
9.904	9502.076
9.906	9235.076
9.908	10665.076
9.910	10715.076
9.912	9330.076
9.914	7536.076
9.916	6388.076
9.918	5774.076
9.920	4101.076
9.922	1907.076
9.924	632.076
9.926	-1114.924
9.928	-2824.924
9.930	-2623.924
9.932	-1281.924
9.934	-454.924
9.936	-586.924
9.938	215.076
9.940	1672.076
9.942	3143.076
9.944	2846.076
9.946	4535.076
9.948	4876.076
9.950	4248.076
9.952	3913.076
9.954	2234.076
9.956	1010.076
9.958	49.076
9.960	-1190.924
9.962	-2826.924
9.964	-4867.924
9.966	-6301.924
9.968	-6920.924
9.970	-7341.924
9.972	-7654.924
9.974	-6702.924
9.976	-5696.924
9.978	-4536.924
9.980	-2434.924
9.982	-2452.924
9.984	-2427.924
9.986	175.076
9.988	1976.076
9.990	2238.076
9.992	1491.076
9.994	388.076
9.996	-877.924
9.998	-1993.924
10.000	-4638.924
10.002	-7526.924
10.004	-9115.924
10.006	-8839.924
10.008	-8031.924
10.010	-8213.924
10.012	-8093.924
10.014	-7525.924
10.016	-7109.924
10.018	-6280.924
10.020	-4549.924
10.022	-3308.924
10.024	-593.924
10.026	1396.076
10.028	410.076
10.030	-225.924
10.032	-726.924
10.034	-1817.924
10.036	-2349.924
10.038	-3669.924
10.040	-5411.924
10.042	-6761.924
10.044	-6968.924
10.046	-8148.924
10.048	-8516.924
10.050	-8563.924
10.052	-9266.924
10.054	-9110.924
10.056	-7958.924
10.058	-5331.924
10.060	-4210.924
10.062	-3666.924
10.064	-2675.924
10.066	180.076
10.068	-39.924
10.070	620.076
10.072	1071.076
10.074	-1008.924
10.076	-1981.924
10.078	-2286.924
10.080	-3091.924
10.082	-5519.924
10.084	-8170.924
10.086	-9461.924
10.088	-10116.924
10.090	-10566.924
10.092	-10328.924
10.094	-9056.924
10.096	-6779.924
10.098	-4481.924
10.100	-2563.924
10.102	-2404.924
10.104	-1799.924
10.106	1083.076
10.108	2293.076
10.110	2318.076
10.112	566.076
10.114	-1957.924
10.116	-3407.924
10.118	-3407.924
10.120	-4594.924
10.122	-7238.924
10.124	-8312.924
10.126	-9369.924
10.128	-9594.924
10.130	-8642.924
10.132	-8251.924
10.134	-6619.924
10.136	-5144.924
10.138	-4084.924
10.140	-3536.924
10.142	-3986.924
10.144	-2980.924
10.146	-10.924
10.148	845.076
10.150	573.076
10.152	-68.924
10.154	-1928.924
10.156	-3248.924
10.158	-4543.924
10.160	-5131.924
10.162	-6684.924
10.164	-8059.924
10.166	-9244.924
10.168	-10352.924
10.170	-11319.924
10.172	-10986.924
10.174	-8228.924
10.176	-6883.924
10.178	-6381.924
10.180	-5283.924
10.182	-3363.924
10.184	338.076
10.186	1520.076
10.188	1249.076
10.190	953.076
10.192	341.076
10.194	-1469.924
10.196	-3012.924
10.198	-4569.924
10.200	-6238.924
10.202	-7564.924
10.204	-8579.924
10.206	-9117.924
10.208	-8843.924
10.210	-8861.924
10.212	-8172.924
10.214	-6578.924
10.216	-4949.924
10.218	-3928.924
10.220	-4287.924
10.222	-3225.924
10.224	-1219.924
10.226	-391.924
10.228	459.076
10.230	201.076
10.232	-1083.924
10.234	-2454.924
10.236	-2758.924
10.238	-3218.924
10.240	-4949.924
10.242	-7643.924
10.244	-8219.924
10.246	-8116.924
10.248	-8444.924
10.250	-9143.924
10.252	-8699.924
10.254	-7774.924
10.256	-6792.924
10.258	-5223.924
10.260	-4817.924
10.262	-3137.924
10.264	-338.924
10.266	-0.924
10.268	-60.924
10.270	35.076
10.272	-267.924
10.274	-2001.924
10.276	-2758.924
10.278	-2899.924
10.280	-4634.924
10.282	-7438.924
10.284	-8867.924
10.286	-9679.924
10.288	-9883.924
10.290	-8659.924
10.292	-8072.924
10.294	-8482.924
10.296	-7242.924
10.298	-4391.924
10.300	-3709.924
10.302	-2889.924
10.304	-1193.924
10.306	-559.924
10.308	275.076
10.310	260.076
10.312	-133.924
10.314	-796.924
10.316	-1859.924
10.318	-2981.924
10.320	-4208.924
10.322	-5299.924
10.324	-7473.924
10.326	-9430.924
10.328	-8980.924
10.330	-7348.924
10.332	-6514.924
10.334	-6247.924
10.336	-5961.924
10.338	-3903.924
10.340	-3167.924
10.342	-2056.924
10.344	-508.924
10.346	-387.924
10.348	-165.924
10.350	455.076
10.352	-162.924
10.354	-1712.924
10.356	-2872.924
10.358	-3826.924
10.360	-5394.924
10.362	-6659.924
10.364	-7270.924
10.366	-8616.924
10.368	-9466.924
10.370	-9076.924
10.372	-9016.924
10.374	-9077.924
10.376	-7034.924
10.378	-5568.924
10.380	-4733.924
10.382	-862.924
10.384	552.076
10.386	826.076
10.388	471.076
10.390	919.076
10.392	681.076
10.394	-998.924
10.396	-2636.924
10.398	-3308.924
10.400	-4844.924
10.402	-6146.924
10.404	-7199.924
10.406	-8802.924
10.408	-9519.924
10.410	-9627.924
10.412	-8208.924
10.414	-6269.924
10.416	-6119.924
10.418	-6779.924
10.420	-4498.924
10.422	-561.924
10.424	81.076
10.426	-334.924
10.428	64.076
10.430	381.076
10.432	-609.924
10.434	-1416.924
10.436	-2680.924
10.438	-3667.924
10.440	-4429.924
10.442	-5601.924
10.444	-7294.924
10.446	-8968.924
10.448	-9462.924
10.450	-8728.924
10.452	-7424.924
10.454	-7462.924
10.456	-7246.924
10.458	-6281.924
10.460	-4112.924
10.462	-411.924
10.464	383.076
10.466	138.076
10.468	528.076
10.470	1269.076
10.472	172.076
10.474	-2841.924
10.476	-3867.924
10.478	-3441.924
10.480	-4494.924
10.482	-7369.924
10.484	-8813.924
10.486	-9106.924
10.488	-8968.924
10.490	-9148.924
10.492	-8123.924
10.494	-6489.924
10.496	-5988.924
10.498	-5611.924
10.500	-4096.924
10.502	-1293.924
10.504	-17.924
10.506	21.076
10.508	321.076
10.510	256.076
10.512	-583.924
10.514	-1696.924
10.516	-2081.924
10.518	-2956.924
10.520	-4601.924
10.522	-5806.924
10.524	-6041.924
10.526	-7213.924
10.528	-8651.924
10.530	-7424.924
10.532	-4769.924
10.534	-3258.924
10.536	-3059.924
10.538	-3396.924
10.540	-290.924
10.542	3181.076
10.544	3011.076
10.546	2622.076
10.548	2849.076
10.550	2373.076
10.552	1524.076
10.554	1246.076
10.556	801.076
10.558	-1014.924
10.560	-3246.924
10.562	-5297.924
10.564	-6412.924
10.566	-6908.924
10.568	-5894.924
10.570	-5224.924
10.572	-5621.924
10.574	-4789.924
10.576	-3147.924
10.578	-1931.924
10.580	2661.076
10.582	3651.076
10.584	2746.076
10.586	2828.076
10.588	2588.076
10.590	2764.076
10.592	2901.076
10.594	1683.076
10.596	861.076
10.598	-668.924
10.600	-3879.924
10.602	-6118.924
10.604	-6920.924
10.606	-7626.924
10.608	-8514.924
10.610	-8623.924
10.612	-6718.924
10.614	-5143.924
10.616	-5443.924
10.618	-4583.924
10.620	-1731.924
10.622	-601.924
10.624	-636.924
10.626	-1538.924
10.628	-1159.924
10.630	-309.924
10.632	-1508.924
10.634	-2861.924
10.636	-3690.924
10.638	-4687.924
10.640	-6276.924
10.642	-7748.924
10.644	-8426.924
10.646	-8133.924
10.648	-8813.924
10.650	-9830.924
10.652	-8501.924
10.654	-7416.924
10.656	-7893.924
10.658	-6569.924
10.660	-2588.924
10.662	-64.924
10.664	43.076
10.666	-1554.924
10.668	-1733.924
10.670	-376.924
10.672	52.076
10.674	-1219.924
10.676	-2729.924
10.678	-3898.924
10.680	-5897.924
10.682	-7136.924
10.684	-7919.924
10.686	-8611.924
10.688	-8830.924
10.690	-8469.924
10.692	-7323.924
10.694	-6619.924
10.696	-6979.924
10.698	-4990.924
10.700	-1893.924
10.702	-537.924
10.704	-576.924
10.706	-928.924
10.708	-450.924
10.710	-668.924
10.712	-1313.924
10.714	-2157.924
10.716	-3346.924
10.718	-4486.924
10.720	-5600.924
10.722	-6558.924
10.724	-6540.924
10.726	-7791.924
10.728	-8606.924
10.730	-8074.924
10.732	-7139.924
10.734	-6583.924
10.736	-5429.924
10.738	-2778.924
10.740	1185.076
10.742	4441.076
10.744	7341.076
10.746	10840.076
10.748	12660.076
10.750	13240.076
10.752	14636.076
10.754	16822.076
10.756	18243.076
10.758	18636.076
10.760	18981.076
10.762	20374.076
10.764	22186.076
10.766	23090.076
10.768	24198.076
10.770	26972.076
10.772	31404.076
10.774	33815.076
10.776	35260.076
10.778	40718.076
10.780	41993.076
10.782	39370.076
10.784	36100.076
10.786	32340.076
10.788	28366.076
10.790	24473.076
10.792	18981.076
10.794	12618.076
10.796	7318.076
10.798	2435.076
10.800	-2044.924
10.802	-3379.924
10.804	-4064.924
10.806	-5781.924
10.808	-6260.924
10.810	-6654.924
10.812	-7599.924
10.814	-8563.924
10.816	-8188.924
10.818	-4822.924
10.820	-2956.924
10.822	-2713.924
10.824	-2339.924
10.826	-833.924
10.828	-699.924
10.830	-2273.924
10.832	-4622.924
10.834	-5328.924
10.836	-6081.924
10.838	-7723.924
10.840	-9881.924
10.842	-10788.924
10.844	-11253.924
10.846	-12245.924
10.848	-13029.924
10.850	-12159.924
10.852	-10782.924
10.854	-10405.924
10.856	-9647.924
10.858	-6405.924
10.860	-3716.924
10.862	-2039.924
10.864	-913.924
10.866	-828.924
10.868	-294.924
10.870	-41.924
10.872	-459.924
10.874	-948.924
10.876	-2096.924
10.878	-4194.924
10.880	-7050.924
10.882	-7716.924
10.884	-8426.924
10.886	-9708.924
10.888	-9465.924
10.890	-8568.924
10.892	-7229.924
10.894	-6617.924
10.896	-5411.924
10.898	-2711.924
10.900	-1083.924
10.902	-694.924
10.904	-268.924
10.906	150.076
10.908	100.076
10.910	235.076
10.912	-681.924
10.914	-1868.924
10.916	-3403.924
10.918	-5096.924
10.920	-5987.924
10.922	-6193.924
10.924	-6890.924
10.926	-7944.924
10.928	-8483.924
10.930	-8208.924
10.932	-7688.924
10.934	-7691.924
10.936	-5541.924
10.938	-1768.924
10.940	-43.924
10.942	-36.924
10.944	561.076
10.946	1482.076
10.948	2108.076
10.950	1419.076
10.952	-194.924
10.954	-936.924
10.956	-2527.924
10.958	-3789.924
10.960	-5665.924
10.962	-6679.924
10.964	-7401.924
10.966	-8842.924
10.968	-8756.924
10.970	-8201.924
10.972	-6466.924
10.974	-6816.924
10.976	-5340.924
10.978	-1691.924
10.980	10.076
10.982	2137.076
10.984	2917.076
10.986	3472.076
10.988	3888.076
10.990	2717.076
10.992	1639.076
10.994	903.076
10.996	-396.924
10.998	-2180.924
11.000	-4151.924
11.002	-4991.924
11.004	-5587.924
11.006	-7493.924
11.008	-8909.924
11.010	-8579.924
11.012	-7631.924
11.014	-7073.924
11.016	-3315.924
11.018	-1618.924
11.020	291.076
11.022	890.076
11.024	1274.076
11.026	3743.076
11.028	6007.076
11.030	6440.076
11.032	3623.076
11.034	1231.076
11.036	-108.924
11.038	-884.924
11.040	-1878.924
11.042	-3237.924
11.044	-4473.924
11.046	-5396.924
11.048	-5483.924
11.050	-5364.924
11.052	-5748.924
11.054	-4523.924
11.056	-778.924
11.058	1770.076
11.060	3732.076
11.062	3150.076
11.064	2507.076
11.066	3301.076
11.068	3946.076
11.070	4668.076
11.072	3550.076
11.074	2241.076
11.076	758.076
11.078	-674.924
11.080	-2501.924
11.082	-3759.924
11.084	-3970.924
11.086	-4449.924
11.088	-4467.924
11.090	-4363.924
11.092	-4218.924
11.094	-3105.924
11.096	-158.924
11.098	2146.076
11.100	3433.076
11.102	4361.076
11.104	5998.076
11.106	6995.076
11.108	6931.076
11.110	5909.076
11.112	5036.076
11.114	4276.076
11.116	3291.076
11.118	2401.076
11.120	626.076
11.122	-242.924
11.124	-1501.924
11.126	-2744.924
11.128	-1953.924
11.130	-853.924
11.132	-1218.924
11.134	340.076
11.136	3627.076
11.138	4951.076
11.140	6190.076
11.142	7650.076
11.144	8389.076
11.146	8481.076
11.148	9015.076
11.150	8943.076
11.152	7625.076
11.154	7135.076
11.156	6116.076
11.158	5166.076
11.160	3295.076
11.162	1476.076
11.164	654.076
11.166	725.076
11.168	1163.076
11.170	1563.076
11.172	1833.076
11.174	3029.076
11.176	6327.076
11.178	8212.076
11.180	9398.076
11.182	10693.076
11.184	12971.076
11.186	13741.076
11.188	13412.076
11.190	13047.076
11.192	12085.076
11.194	10726.076
11.196	9655.076
11.198	8981.076
11.200	7443.076
11.202	6458.076
11.204	5647.076
11.206	4556.076
11.208	5093.076
11.210	4876.076
11.212	4514.076
11.214	6823.076
11.216	8363.076
11.218	10463.076
11.220	12945.076
11.222	15427.076
11.224	16473.076
11.226	15060.076
11.228	13538.076
11.230	14390.076
11.232	15876.076
11.234	16126.076
11.236	14838.076
11.238	11818.076
11.240	10092.076
11.242	9691.076
11.244	8528.076
11.246	7916.076
11.248	8265.076
11.250	6590.076
11.252	6548.076
11.254	9473.076
11.256	11023.076
11.258	12766.076
11.260	14573.076
11.262	13991.076
11.264	12656.076
11.266	13683.076
11.268	15245.076
11.270	15259.076
11.272	13329.076
11.274	11183.076
11.276	10030.076
11.278	9816.076
11.280	8828.076
11.282	7302.076
11.284	5417.076
11.286	3595.076
11.288	3487.076
11.290	3245.076
11.292	4476.076
11.294	7361.076
11.296	8116.076
11.298	9024.076
11.300	9468.076
11.302	9557.076
11.304	9703.076
11.306	9046.076
11.308	8066.076
11.310	6935.076
11.312	5619.076
11.314	4859.076
11.316	4401.076
11.318	2476.076
11.320	-250.924
11.322	-1687.924
11.324	-1854.924
11.326	-2018.924
11.328	-3205.924
11.330	-4807.924
11.332	-3898.924
11.334	-411.924
11.336	2175.076
11.338	2858.076
11.340	3288.076
11.342	3656.076
11.344	4145.076
11.346	4315.076
11.348	4111.076
11.350	2885.076
11.352	1835.076
11.354	335.076
11.356	-1918.924
11.358	-3564.924
11.360	-3808.924
11.362	-4196.924
11.364	-5628.924
11.366	-6803.924
11.368	-6479.924
11.370	-6986.924
11.372	-6808.924
11.374	-4949.924
11.376	-2889.924
11.378	-1936.924
11.380	-496.924
11.382	752.076
11.384	2011.076
11.386	1701.076
11.388	1130.076
11.390	295.076
11.392	-51.924
11.394	-1134.924
11.396	-3266.924
11.398	-4826.924
11.400	-5657.924
11.402	-6733.924
11.404	-7716.924
11.406	-9049.924
11.408	-9640.924
11.410	-9873.924
11.412	-7153.924
11.414	-5799.924
11.416	-4799.924
11.418	-2823.924
11.420	-1379.924
11.422	-1369.924
11.424	-523.924
11.426	-859.924
11.428	-1868.924
11.430	-897.924
11.432	-491.924
11.434	-1869.924
11.436	-4207.924
11.438	-6937.924
11.440	-9114.924
11.442	-8990.924
11.444	-8623.924
11.446	-9515.924
11.448	-10040.924
11.450	-8751.924
11.452	-5833.924
11.454	-4563.924
11.456	-3768.924
11.458	-3245.924
11.460	-1728.924
11.462	595.076
11.464	1191.076
11.466	1490.076
11.468	1261.076
11.470	162.076
11.472	-1411.924
11.474	-2841.924
11.476	-4858.924
11.478	-6744.924
11.480	-7426.924
11.482	-8183.924
11.484	-8994.924
11.486	-8808.924
11.488	-9421.924
11.490	-8580.924
11.492	-6459.924
11.494	-6231.924
11.496	-5368.924
11.498	-3275.924
11.500	-2283.924
11.502	-2342.924
11.504	-1049.924
11.506	-647.924
11.508	370.076
11.510	1371.076
11.512	-188.924
11.514	-2343.924
11.516	-3941.924
11.518	-5273.924
11.520	-5641.924
11.522	-6659.924
11.524	-8110.924
11.526	-8721.924
11.528	-9890.924
11.530	-9143.924
11.532	-6718.924
11.534	-5748.924
11.536	-4413.924
11.538	-2688.924
11.540	-1578.924
11.542	-1044.924
11.544	-570.924
11.546	809.076
11.548	1246.076
11.550	-116.924
11.552	-1519.924
11.554	-2388.924
11.556	-3822.924
11.558	-5948.924
11.560	-7863.924
11.562	-8539.924
11.564	-9538.924
11.566	-9666.924
11.568	-9658.924
11.570	-8083.924
11.572	-5916.924
11.574	-4819.924
11.576	-3743.924
11.578	-2609.924
11.580	-1423.924
11.582	-731.924
11.584	21.076
11.586	248.076
11.588	-108.924
11.590	-620.924
11.592	-804.924
11.594	-1379.924
11.596	-3717.924
11.598	-5631.924
11.600	-6998.924
11.602	-8194.924
11.604	-9213.924
11.606	-9156.924
11.608	-10030.924
11.610	-9200.924
11.612	-6409.924
11.614	-4804.924
11.616	-2994.924
11.618	-902.924
11.620	581.076
11.622	368.076
11.624	-157.924
11.626	-539.924
11.628	-843.924
11.630	-1558.924
11.632	-2283.924
11.634	-2761.924
11.636	-3273.924
11.638	-4556.924
11.640	-5932.924
11.642	-7766.924
11.644	-8535.924
11.646	-8516.924
11.648	-7613.924
11.650	-5033.924
11.652	-4590.924
11.654	-4736.924
11.656	-3404.924
11.658	-1944.924
11.660	-244.924
11.662	673.076
11.664	1518.076
11.666	1870.076
11.668	1590.076
11.670	118.076
11.672	-1688.924
11.674	-3469.924
11.676	-4791.924
11.678	-6001.924
11.680	-8509.924
11.682	-8958.924
11.684	-8541.924
11.686	-10127.924
11.688	-10845.924
11.690	-8456.924
11.692	-6785.924
11.694	-4265.924
11.696	-2190.924
11.698	-429.924
11.700	222.076
11.702	376.076
11.704	1267.076
11.706	1453.076
11.708	1025.076
11.710	488.076
11.712	267.076
11.714	366.076
11.716	-1991.924
11.718	-4800.924
11.720	-6519.924
11.722	-7763.924
11.724	-8610.924
11.726	-9471.924
11.728	-8994.924
11.730	-6334.924
11.732	-5552.924
11.734	-5021.924
11.736	-3888.924
11.738	-1949.924
11.740	199.076
11.742	1374.076
11.744	2003.076
11.746	1356.076
11.748	1152.076
11.750	71.076
11.752	-1441.924
11.754	-2836.924
11.756	-4049.924
11.758	-5234.924
11.760	-6865.924
11.762	-7414.924
11.764	-7819.924
11.766	-9961.924
11.768	-9963.924
11.770	-6787.924
11.772	-5702.924
11.774	-4844.924
11.776	-2951.924
11.778	-1115.924
11.780	-1299.924
11.782	-1147.924
11.784	51.076
11.786	1241.076
11.788	1646.076
11.790	189.076
11.792	-1328.924
11.794	-2766.924
11.796	-4786.924
11.798	-6439.924
11.800	-7260.924
11.802	-7313.924
11.804	-7696.924
11.806	-9283.924
11.808	-9318.924
11.810	-6457.924
11.812	-4951.924
11.814	-4061.924
11.816	-2715.924
11.818	-1303.924
11.820	34.076
11.822	1194.076
11.824	1980.076
11.826	1831.076
11.828	618.076
11.830	-208.924
11.832	-315.924
11.834	-983.924
11.836	-3896.924
11.838	-5562.924
11.840	-5476.924
11.842	-6552.924
11.844	-8802.924
11.846	-9241.924
11.848	-5951.924
11.850	-5257.924
11.852	-5259.924
11.854	-3644.924
11.856	-1121.924
11.858	1210.076
11.860	2253.076
11.862	2632.076
11.864	3189.076
11.866	3217.076
11.868	3186.076
11.870	2787.076
11.872	1688.076
11.874	560.076
11.876	-231.924
11.878	-1972.924
11.880	-3621.924
11.882	-4753.924
11.884	-5491.924
11.886	-4970.924
11.888	-3868.924
11.890	-3189.924
11.892	-2112.924
11.894	-1321.924
11.896	-131.924
11.898	1727.076
11.900	2403.076
11.902	3613.076
11.904	4725.076
11.906	4098.076
11.908	3674.076
11.910	3029.076
11.912	1755.076
11.914	360.076
11.916	-1626.924
11.918	-4203.924
11.920	-6554.924
11.922	-7544.924
11.924	-9584.924
11.926	-9607.924
11.928	-6524.924
11.930	-5259.924
11.932	-4874.924
11.934	-3873.924
11.936	-2808.924
11.938	-1502.924
11.940	-224.924
11.942	623.076
11.944	1700.076
11.946	1333.076
11.948	-108.924
11.950	-1943.924
11.952	-3080.924
11.954	-4363.924
11.956	-5831.924
11.958	-6688.924
11.960	-7958.924
11.962	-8497.924
11.964	-9764.924
11.966	-10178.924
11.968	-8126.924
11.970	-6384.924
11.972	-5838.924
11.974	-5206.924
11.976	-3301.924
11.978	-1361.924
11.980	-953.924
11.982	-1003.924
11.984	-456.924
11.986	-946.924
11.988	-1288.924
11.990	-1177.924
11.992	-1800.924
11.994	-3179.924
11.996	-5496.924
11.998	-8023.924
12.000	-9263.924
12.002	-9186.924
12.004	-10580.924
12.006	-10471.924
12.008	-8371.924
12.010	-7582.924
12.012	-6768.924
12.014	-4496.924
12.016	-2835.924
12.018	-2106.924
12.020	-2383.924
12.022	-3063.924
12.024	-2361.924
12.026	-746.924
12.028	-279.924
12.030	-588.924
12.032	-1930.924
12.034	-2649.924
12.036	-2886.924
12.038	-4944.924
12.040	-6523.924
12.042	-8548.924
12.044	-10917.924
12.046	-7898.924
12.048	-6771.924
12.050	-5574.924
12.052	-4439.924
12.054	-3112.924
12.056	-904.924
12.058	2786.076
12.060	5881.076
12.062	8409.076
12.064	11708.076
12.066	14197.076
12.068	14957.076
12.070	15296.076
12.072	16713.076
12.074	18384.076
12.076	18853.076
12.078	19694.076
12.080	21163.076
12.082	22479.076
12.084	24560.076
12.086	27970.076
12.088	30136.076
12.090	33248.076
12.092	36095.076
12.094	38797.076
12.096	40499.076
12.098	40169.076
12.100	36514.076
12.102	33045.076
12.104	30613.076
12.106	27021.076
12.108	22598.076
12.110	16785.076
12.112	11643.076
12.114	6653.076
12.116	2229.076
12.118	-2243.924
12.120	-4006.924
12.122	-5284.924
12.124	-6371.924
12.126	-6384.924
12.128	-5206.924
12.130	-4361.924
12.132	-5694.924
12.134	-5904.924
12.136	-4804.924
12.138	-2738.924
12.140	-1879.924
12.142	-2427.924
12.144	-2306.924
12.146	-1184.924
12.148	-2624.924
12.150	-5036.924
12.152	-6116.924
12.154	-6060.924
12.156	-7394.924
12.158	-9419.924
12.160	-10652.924
12.162	-13332.924
12.164	-14189.924
12.166	-11971.924
12.168	-11540.924
12.170	-10217.924
12.172	-7793.924
12.174	-5679.924
12.176	-4703.924
12.178	-4201.924
12.180	-3477.924
12.182	-1528.924
12.184	-376.924
12.186	-84.924
12.188	-140.924
12.190	-1922.924
12.192	-2613.924
12.194	-3639.924
12.196	-5308.924
12.198	-7245.924
12.200	-8049.924
12.202	-8230.924
12.204	-9055.924
12.206	-8887.924
12.208	-8018.924
12.210	-7199.924
12.212	-6546.924
12.214	-5227.924
12.216	-2904.924
12.218	-558.924
12.220	-71.924
12.222	3.076
12.224	510.076
12.226	1330.076
12.228	1446.076
12.230	190.076
12.232	-1209.924
12.234	-2718.924
12.236	-5253.924
12.238	-7510.924
12.240	-7856.924
12.242	-9437.924
12.244	-8814.924
12.246	-6693.924
12.248	-5773.924
12.250	-5240.924
12.252	-4037.924
12.254	-3856.924
12.256	-3674.924
12.258	-1564.924
12.260	227.076
12.262	1553.076
12.264	1970.076
12.266	2305.076
12.268	2506.076
12.270	1425.076
12.272	-230.924
12.274	-2739.924
12.276	-5084.924
12.278	-6059.924
12.280	-5778.924
12.282	-7325.924
12.284	-6624.924
12.286	-6415.924
12.288	-7073.924
12.290	-5643.924
12.292	-3808.924
12.294	-2178.924
12.296	-658.924
12.298	1297.076
12.300	1937.076
12.302	2175.076
12.304	2489.076
12.306	2102.076
12.308	1888.076
12.310	975.076
12.312	-723.924
12.314	-1970.924
12.316	-3258.924
12.318	-5438.924
12.320	-7699.924
12.322	-8106.924
12.324	-6625.924
12.326	-6948.924
12.328	-6206.924
12.330	-3869.924
12.332	-2984.924
12.334	-1651.924
12.336	203.076
12.338	2033.076
12.340	2543.076
12.342	3374.076
12.344	3618.076
12.346	2953.076
12.348	2278.076
12.350	940.076
12.352	178.076
12.354	861.076
12.356	-4.924
12.358	-1952.924
12.360	-4315.924
12.362	-5656.924
12.364	-5068.924
12.366	-5168.924
12.368	-4946.924
12.370	-3438.924
12.372	-2136.924
12.374	-574.924
12.376	1216.076
12.378	3080.076
12.380	3588.076
12.382	4094.076
12.384	5105.076
12.386	4676.076
12.388	3173.076
12.390	1896.076
12.392	1438.076
12.394	702.076
12.396	-681.924
12.398	-2572.924
12.400	-4218.924
12.402	-4220.924
12.404	-2931.924
12.406	-2869.924
12.408	-2964.924
12.410	-2753.924
12.412	-2584.924
12.414	-844.924
12.416	2608.076
12.418	4837.076
12.420	4741.076
12.422	5923.076
12.424	7747.076
12.426	7746.076
12.428	6282.076
12.430	4961.076
12.432	4243.076
12.434	2813.076
12.436	691.076
12.438	-1678.924
12.440	-3438.924
12.442	-3875.924
12.444	-2218.924
12.446	-899.924
12.448	65.076
12.450	1148.076
12.452	1683.076
12.454	2116.076
12.456	4107.076
12.458	7231.076
12.460	8351.076
12.462	8620.076
12.464	8161.076
12.466	7246.076
12.468	6964.076
12.470	7029.076
12.472	6498.076
12.474	5353.076
12.476	4181.076
12.478	716.076
12.480	-1146.924
12.482	1914.076
12.484	1695.076
12.486	1955.076
12.488	2613.076
12.490	4221.076
12.492	6416.076
12.494	7750.076
12.496	8768.076
12.498	10864.076
12.500	11734.076
12.502	11939.076
12.504	13193.076
12.506	13968.076
12.508	12588.076
12.510	10694.076
12.512	10263.076
12.514	9721.076
12.516	8525.076
12.518	5840.076
12.520	4164.076
12.522	4225.076
12.524	4417.076
12.526	5498.076
12.528	6426.076
12.530	7291.076
12.532	8520.076
12.534	10345.076
12.536	12026.076
12.538	14000.076
12.540	15309.076
12.542	16191.076
12.544	16681.076
12.546	16156.076
12.548	14790.076
12.550	13669.076
12.552	12474.076
12.554	11005.076
12.556	10273.076
12.558	7366.076
12.560	6509.076
12.562	6938.076
12.564	5828.076
12.566	6046.076
12.568	6311.076
12.570	7313.076
12.572	8955.076
12.574	11390.076
12.576	13035.076
12.578	13943.076
12.580	14313.076
12.582	15551.076
12.584	15365.076
12.586	15348.076
12.588	14818.076
12.590	12772.076
12.592	11196.076
12.594	9165.076
12.596	7653.076
12.598	5397.076
12.600	4186.076
12.602	4216.076
12.604	4061.076
12.606	3980.076
12.608	3955.076
12.610	4389.076
12.612	5028.076
12.614	5873.076
12.616	7680.076
12.618	9170.076
12.620	9300.076
12.622	10256.076
12.624	10320.076
12.626	8951.076
12.628	6950.076
12.630	6331.076
12.632	5205.076
12.634	2268.076
12.636	370.076
12.638	-2166.924
12.640	-3339.924
12.642	-2783.924
12.644	-3692.924
12.646	-3433.924
12.648	-1394.924
12.650	-1148.924
12.652	-997.924
12.654	404.076
12.656	1332.076
12.658	1466.076
12.660	1637.076
12.662	2563.076
12.664	3959.076
12.666	3136.076
12.668	1887.076
12.670	1386.076
12.672	-244.924
12.674	-2326.924
12.676	-3336.924
12.678	-4878.924
12.680	-4366.924
12.682	-5679.924
12.684	-7144.924
12.686	-7878.924
12.688	-6608.924
12.690	-5484.924
12.692	-5815.924
12.694	-4284.924
12.696	-846.924
12.698	320.076
12.700	-86.924
12.702	-62.924
12.704	1190.076
12.706	1707.076
12.708	386.076
12.710	-324.924
12.712	-1017.924
12.714	-3230.924
12.716	-6777.924
12.718	-9275.924
12.720	-8002.924
12.722	-7816.924
12.724	-7946.924
12.726	-7554.924
12.728	-7299.924
12.730	-6610.924
12.732	-5019.924
12.734	-3309.924
12.736	-1628.924
12.738	-218.924
12.740	126.076
12.742	1021.076
12.744	828.076
12.746	320.076
12.748	-334.924
12.750	-1311.924
12.752	-2710.924
12.754	-4931.924
12.756	-7848.924
12.758	-9416.924
12.760	-7903.924
12.762	-7908.924
12.764	-8373.924
12.766	-8285.924
12.768	-7778.924
12.770	-6876.924
12.772	-5224.924
12.774	-3399.924
12.776	-1860.924
12.778	-928.924
12.780	-850.924
12.782	52.076
12.784	65.076
12.786	-364.924
12.788	-1558.924
12.790	-2367.924
12.792	-3013.924
12.794	-4923.924
12.796	-6934.924
12.798	-7365.924
12.800	-6467.924
12.802	-8212.924
12.804	-9349.924
12.806	-9443.924
12.808	-8478.924
12.810	-7464.924
12.812	-5891.924
12.814	-3573.924
12.816	-2887.924
12.818	-1783.924
12.820	-1373.924
12.822	-1174.924
12.824	522.076
12.826	1388.076
12.828	-497.924
12.830	-2513.924
12.832	-3360.924
12.834	-3633.924
12.836	-6093.924
12.838	-7928.924
12.840	-7649.924
12.842	-8237.924
12.844	-8266.924
12.846	-8378.924
12.848	-7734.924
12.850	-7313.924
12.852	-6468.924
12.854	-3620.924
12.856	-160.924
12.858	566.076
12.860	435.076
12.862	1233.076
12.864	1124.076
12.866	205.076
12.868	-938.924
12.870	-1983.924
12.872	-3499.924
12.874	-5243.924
12.876	-7838.924
12.878	-7147.924
12.880	-7102.924
12.882	-7535.924
12.884	-8839.924
12.886	-9918.924
12.888	-8194.924
12.890	-6462.924
12.892	-5717.924
12.894	-4798.924
12.896	-2268.924
12.898	-573.924
12.900	-628.924
12.902	-326.924
12.904	-675.924
12.906	-204.924
12.908	-589.924
12.910	-2021.924
12.912	-3156.924
12.914	-5288.924
12.916	-6859.924
12.918	-5964.924
12.920	-6969.924
12.922	-8452.924
12.924	-8771.924
12.926	-7704.924
12.928	-5164.924
12.930	-4164.924
12.932	-4379.924
12.934	-4328.924
12.936	-2916.924
12.938	-774.924
12.940	638.076
12.942	873.076
12.944	805.076
12.946	244.076
12.948	-643.924
12.950	-1738.924
12.952	-3570.924
12.954	-6141.924
12.956	-7558.924
12.958	-6695.924
12.960	-7481.924
12.962	-8923.924
12.964	-8455.924
12.966	-7858.924
12.968	-7367.924
12.970	-6042.924
12.972	-4880.924
12.974	-3575.924
12.976	-1272.924
12.978	146.076
12.980	1571.076
12.982	2303.076
12.984	1278.076
12.986	911.076
12.988	234.076
12.990	-955.924
12.992	-2123.924
12.994	-4376.924
12.996	-6384.924
12.998	-5934.924
13.000	-6848.924
13.002	-8028.924
13.004	-8733.924
13.006	-9238.924
13.008	-7866.924
13.010	-6421.924
13.012	-6086.924
13.014	-5054.924
13.016	-1543.924
13.018	33.076
13.020	1018.076
13.022	1798.076
13.024	1548.076
13.026	801.076
13.028	-519.924
13.030	-1763.924
13.032	-3408.924
13.034	-5762.924
13.036	-6604.924
13.038	-6886.924
13.040	-8523.924
13.042	-10004.924
13.044	-9058.924
13.046	-7538.924
13.048	-6506.924
13.050	-5419.924
13.052	-3921.924
13.054	-2584.924
13.056	-948.924
13.058	547.076
13.060	1178.076
13.062	173.076
13.064	95.076
13.066	608.076
13.068	-526.924
13.070	-1971.924
13.072	-2588.924
13.074	-3791.924
13.076	-5903.924
13.078	-6824.924
13.080	-8306.924
13.082	-8619.924
13.084	-8158.924
13.086	-8090.924
13.088	-7505.924
13.090	-6419.924
13.092	-4420.924
13.094	-2443.924
13.096	-1096.924
13.098	-127.924
13.100	968.076
13.102	1415.076
13.104	1230.076
13.106	543.076
13.108	-1035.924
13.110	-2531.924
13.112	-3881.924
13.114	-6014.924
13.116	-6891.924
13.118	-6319.924
13.120	-5767.924
13.122	-6598.924
13.124	-7759.924
13.126	-6833.924
13.128	-5544.924
13.130	-4870.924
13.132	-3549.924
13.134	-2071.924
13.136	130.076
13.138	814.076
13.140	2060.076
13.142	3386.076
13.144	2899.076
13.146	2316.076
13.148	1557.076
13.150	993.076
13.152	-1846.924
13.154	-3517.924
13.156	-3051.924
13.158	-4760.924
13.160	-5799.924
13.162	-5399.924
13.164	-5663.924
13.166	-6036.924
13.168	-5448.924
13.170	-3818.924
13.172	-1514.924
13.174	415.076
13.176	2890.076
13.178	3535.076
13.180	3048.076
13.182	3867.076
13.184	4075.076
13.186	3311.076
13.188	1809.076
13.190	1007.076
13.192	-829.924
13.194	-2709.924
13.196	-3771.924
13.198	-5258.924
13.200	-6482.924
13.202	-6351.924
13.204	-6027.924
13.206	-5683.924
13.208	-4703.924
13.210	-4765.924
13.212	-4606.924
13.214	-3057.924
13.216	-754.924
13.218	523.076
13.220	842.076
13.222	805.076
13.224	920.076
13.226	1255.076
13.228	73.076
13.230	-1564.924
13.232	-4946.924
13.234	-6071.924
13.236	-4933.924
13.238	-6045.924
13.240	-7571.924
13.242	-8574.924
13.244	-9583.924
13.246	-9812.924
13.248	-7928.924
13.250	-6134.924
13.252	-4423.924
13.254	-3114.924
13.256	-1299.924
13.258	-313.924
13.260	-108.924
13.262	-68.924
13.264	-306.924
13.266	-748.924
13.268	-2300.924
13.270	-3520.924
13.272	-5339.924
13.274	-6463.924
13.276	-6179.924
13.278	-6966.924
13.280	-8088.924
13.282	-9696.924
13.284	-10153.924
13.286	-8888.924
13.288	-7500.924
13.290	-6724.924
13.292	-5242.924
13.294	-3224.924
13.296	-928.924
13.298	-609.924
13.300	-609.924
13.302	-289.924
13.304	-520.924
13.306	-1469.924
13.308	-3281.924
13.310	-5024.924
13.312	-6092.924
13.314	-5559.924
13.316	-6296.924
13.318	-7607.924
13.320	-9338.924
13.322	-11062.924
13.324	-10354.924
13.326	-8846.924
13.328	-7266.924
13.330	-5969.924
13.332	-3599.924
13.334	-1644.924
13.336	-250.924
13.338	-22.924
13.340	-868.924
13.342	-662.924
13.344	681.076
13.346	296.076
13.348	-521.924
13.350	-754.924
13.352	891.076
13.354	4781.076
13.356	6620.076
13.358	6383.076
13.360	7168.076
13.362	9217.076
13.364	11152.076
13.366	13625.076
13.368	18356.076
13.370	22080.076
13.372	25560.076
13.374	29591.076
13.376	34552.076
13.378	37173.076
13.380	39186.076
13.382	41973.076
13.384	44941.076
13.386	46151.076
13.388	44630.076
13.390	39123.076
13.392	33403.076
13.394	30166.076
13.396	25494.076
13.398	19476.076
13.400	13827.076
13.402	9381.076
13.404	5021.076
13.406	1367.076
13.408	-664.924
13.410	445.076
13.412	2335.076
13.414	2962.076
13.416	4745.076
13.418	4692.076
13.420	3741.076
13.422	3071.076
13.424	1912.076
13.426	-154.924
13.428	-1178.924
13.430	-2802.924
13.432	-5023.924
13.434	-5992.924
13.436	-6961.924
13.438	-8069.924
13.440	-9799.924
13.442	-11054.924
13.444	-11920.924
13.446	-12113.924
13.448	-11001.924
13.450	-9559.924
13.452	-7938.924
13.454	-6263.924
13.456	-5223.924
13.458	-4341.924
13.460	-2938.924
13.462	-2258.924
13.464	-3511.924
13.466	-4502.924
13.468	-4251.924
13.470	-5092.924
13.472	-5426.924
13.474	-5249.924
13.476	-7564.924
13.478	-8344.924
13.480	-7739.924
13.482	-7706.924
13.484	-8089.924
13.486	-7883.924
13.488	-7168.924
13.490	-6247.924
13.492	-5094.924
13.494	-3677.924
13.496	-1086.924
13.498	-73.924
13.500	196.076
13.502	100.076
13.504	-624.924
13.506	-1072.924
13.508	-1994.924
13.510	-3796.924
13.512	-2442.924
13.514	-4264.924
13.516	-7676.924
13.518	-8366.924
13.520	-7614.924
13.522	-6766.924
13.524	-7224.924
13.526	-7278.924
13.528	-5734.924
13.530	-4277.924
13.532	-2772.924
13.534	-1141.924
13.536	75.076
13.538	1149.076
13.540	2032.076
13.542	1878.076
13.544	1080.076
13.546	486.076
13.548	-1023.924
13.550	-3291.924
13.552	-3573.924
13.554	-5091.924
13.556	-6605.924
13.558	-7251.924
13.560	-7267.924
13.562	-7048.924
13.564	-7438.924
13.566	-7457.924
13.568	-6823.924
13.570	-4501.924
13.572	-2824.924
13.574	-1928.924
13.576	-346.924
13.578	1339.076
13.580	2430.076
13.582	2710.076
13.584	1866.076
13.586	1033.076
13.588	-1519.924
13.590	-3218.924
13.592	-2192.924
13.594	-3006.924
13.596	-5197.924
13.598	-6824.924
13.600	-7596.924
13.602	-6563.924
13.604	-7060.924
13.606	-6775.924
13.608	-5249.924
13.610	-4075.924
13.612	-1876.924
13.614	-111.924
13.616	931.076
13.618	1475.076
13.620	2506.076
13.622	3146.076
13.624	2961.076
13.626	2302.076
13.628	186.076
13.630	-1651.924
13.632	-1438.924
13.634	-2558.924
13.636	-4658.924
13.638	-5964.924
13.640	-6193.924
13.642	-5831.924
13.644	-6543.924
13.646	-7082.924
13.648	-6552.924
13.650	-5049.924
13.652	-1404.924
13.654	844.076
13.656	1628.076
13.658	2920.076
13.660	3075.076
13.662	3531.076
13.664	4295.076
13.666	1996.076
13.668	-460.924
13.670	-1414.924
13.672	-161.924
13.674	-1136.924
13.676	-1916.924
13.678	-1729.924
13.680	-3850.924
13.682	-5504.924
13.684	-5544.924
13.686	-4909.924
13.688	-2714.924
13.690	-1118.924
13.692	691.076
13.694	3479.076
13.696	5121.076
13.698	4050.076
13.700	4089.076
13.702	5603.076
13.704	6021.076
13.706	5034.076
13.708	2512.076
13.710	2135.076
13.712	106.076
13.714	-1395.924
13.716	-1421.924
13.718	-2844.924
13.720	-3661.924
13.722	-2929.924
13.724	-1691.924
13.726	-993.924
13.728	-416.924
13.730	-49.924
13.732	2071.076
13.734	5535.076
13.736	7003.076
13.738	7082.076
13.740	8801.076
13.742	9250.076
13.744	8213.076
13.746	6411.076
13.748	4654.076
13.750	4894.076
13.752	3900.076
13.754	2366.076
13.756	690.076
13.758	-395.924
13.760	-1435.924
13.762	-1347.924
13.764	206.076
13.766	1341.076
13.768	2094.076
13.770	3088.076
13.772	5125.076
13.774	7341.076
13.776	9338.076
13.778	9775.076
13.780	9791.076
13.782	9706.076
13.784	10681.076
13.786	9289.076
13.788	8016.076
13.790	9005.076
13.792	8179.076
13.794	6318.076
13.796	5378.076
13.798	5006.076
13.800	3758.076
13.802	2910.076
13.804	3009.076
13.806	4028.076
13.808	5923.076
13.810	7478.076
13.812	8606.076
13.814	10276.076
13.816	10964.076
13.818	11431.076
13.820	12426.076
13.822	13485.076
13.824	14223.076
13.826	12721.076
13.828	10820.076
13.830	11347.076
13.832	10320.076
13.834	8081.076
13.836	6030.076
13.838	4551.076
13.840	3897.076
13.842	4726.076
13.844	5800.076
13.846	5882.076
13.848	7721.076
13.850	8871.076
13.852	9820.076
13.854	11656.076
13.856	12771.076
13.858	13322.076
13.860	13334.076
13.862	13911.076
13.864	15710.076
13.866	13823.076
13.868	12487.076
13.870	13041.076
13.872	10805.076
13.874	8091.076
13.876	6365.076
13.878	5378.076
13.880	5122.076
13.882	4503.076
13.884	3784.076
13.886	4648.076
13.888	5526.076
13.890	6542.076
13.892	8628.076
13.894	10251.076
13.896	10940.076
13.898	10957.076
13.900	10645.076
13.902	10633.076
13.904	9847.076
13.906	7286.076
13.908	6573.076
13.910	6793.076
13.912	4486.076
13.914	1986.076
13.916	673.076
13.918	-604.924
13.920	-2533.924
13.922	-2768.924
13.924	-1893.924
13.926	-991.924
13.928	-188.924
13.930	1191.076
13.932	2751.076
13.934	3555.076
13.936	4184.076
13.938	4886.076
13.940	5129.076
13.942	4811.076
13.944	2788.076
13.946	301.076
13.948	1576.076
13.950	875.076
13.952	-1243.924
13.954	-3086.924
13.956	-4554.924
13.958	-6156.924
13.960	-6101.924
13.962	-6280.924
13.964	-7385.924
13.966	-6882.924
13.968	-4620.924
13.970	-2849.924
13.972	-1803.924
13.974	195.076
13.976	1542.076
13.978	1513.076
13.980	822.076
13.982	-189.924
13.984	-585.924
13.986	-1439.924
13.988	-1163.924
13.990	-1426.924
13.992	-3313.924
13.994	-5286.924
13.996	-6116.924
13.998	-6773.924
14.000	-7411.924
14.002	-7608.924
14.004	-7609.924
14.006	-6965.924
14.008	-6035.924
14.010	-4840.924
14.012	-3728.924
14.014	-2524.924
14.016	-673.924
14.018	238.076
14.020	-181.924
14.022	-572.924
14.024	-1722.924
14.026	-3254.924
14.028	-1698.924
14.030	-1919.924
14.032	-3921.924
14.034	-6427.924
14.036	-8297.924
14.038	-9256.924
14.040	-9955.924
14.042	-9386.924
14.044	-7541.924
14.046	-6336.924
14.048	-5982.924
14.050	-5675.924
14.052	-5507.924
14.054	-3701.924
14.056	-1749.924
14.058	-984.924
14.060	-337.924
14.062	-515.924
14.064	-1084.924
14.066	-1522.924
14.068	-1652.924
14.070	-2841.924
14.072	-4677.924
14.074	-7084.924
14.076	-7092.924
14.078	-6639.924
14.080	-7081.924
14.082	-7709.924
14.084	-8302.924
14.086	-7691.924
14.088	-6293.924
14.090	-5698.924
14.092	-4658.924
14.094	-1900.924
14.096	-1071.924
14.098	-759.924
14.100	-604.924
14.102	-1286.924
14.104	-2541.924
14.106	-3316.924
14.108	-2404.924
14.110	-2270.924
14.112	-3997.924
14.114	-6268.924
14.116	-7264.924
14.118	-8415.924
14.120	-10187.924
14.122	-9989.924
14.124	-8584.924
14.126	-8387.924
14.128	-7973.924
14.130	-6022.924
14.132	-3398.924
14.134	-1211.924
14.136	460.076
14.138	1205.076
14.140	746.076
14.142	-279.924
14.144	-2159.924
14.146	-1418.924
14.148	-1830.924
14.150	-3349.924
14.152	-4804.924
14.154	-5506.924
14.156	-6381.924
14.158	-8695.924
14.160	-10048.924
14.162	-8503.924
14.164	-7938.924
14.166	-6906.924
14.168	-4863.924
14.170	-4255.924
14.172	-3004.924
14.174	-806.924
14.176	-142.924
14.178	-509.924
14.180	-541.924
14.182	-804.924
14.184	-970.924
14.186	-165.924
14.188	-993.924
14.190	-2444.924
14.192	-4235.924
14.194	-6699.924
14.196	-7853.924
14.198	-8810.924
14.200	-10332.924
14.202	-10614.924
14.204	-9848.924
14.206	-8733.924
14.208	-7414.924
14.210	-4590.924
14.212	-2826.924
14.214	-2130.924
14.216	-1401.924
14.218	90.076
14.220	1010.076
14.222	-313.924
14.224	-1022.924
14.226	-777.924
14.228	-1544.924
14.230	-2461.924
14.232	-4293.924
14.234	-6052.924
14.236	-7168.924
14.238	-8503.924
14.240	-10267.924
14.242	-10122.924
14.244	-8839.924
14.246	-7607.924
14.248	-6685.924
14.250	-6179.924
14.252	-3979.924
14.254	1166.076
14.256	1430.076
14.258	578.076
14.260	1046.076
14.262	913.076
14.264	413.076
14.266	-643.924
14.268	-1926.924
14.270	-3570.924
14.272	-5274.924
14.274	-6789.924
14.276	-7206.924
14.278	-7438.924
14.280	-7942.924
14.282	-8603.924
14.284	-8830.924
14.286	-7563.924
14.288	-6141.924
14.290	-5319.924
