0.000	-2161.874
0.002	-1012.874
0.004	194.126
0.006	1456.126
0.008	1923.126
0.010	2774.126
0.012	5566.126
0.014	6349.126
0.016	5977.126
0.018	5726.126
0.020	3791.126
0.022	1808.126
0.024	-41.874
0.026	-663.874
0.028	-1580.874
0.030	-3113.874
0.032	-3951.874
0.034	-5078.874
0.036	-6450.874
0.038	-6111.874
0.040	-4464.874
0.042	-3276.874
0.044	-2604.874
0.046	-1011.874
0.048	-255.874
0.050	1288.126
0.052	4253.126
0.054	4938.126
0.056	3806.126
0.058	2821.126
0.060	2083.126
0.062	1209.126
0.064	-298.874
0.066	-2431.874
0.068	-4815.874
0.070	-5793.874
0.072	-6388.874
0.074	-7091.874
0.076	-7398.874
0.078	-6978.874
0.080	-6625.874
0.082	-4994.874
0.084	-2973.874
0.086	-1537.874
0.088	-580.874
0.090	1030.126
0.092	2548.126
0.094	2547.126
0.096	3439.126
0.098	3987.126
0.100	2851.126
0.102	902.126
0.104	-1617.874
0.106	-2897.874
0.108	-3100.874
0.110	-5001.874
0.112	-8017.874
0.114	-9435.874
0.116	-8906.874
0.118	-7161.874
0.120	-5343.874
0.122	-2998.874
0.124	-1101.874
0.126	-1071.874
0.128	-1372.874
0.130	1301.126
0.132	3059.126
0.134	2716.126
0.136	1719.126
0.138	947.126
0.140	-35.874
0.142	-1555.874
0.144	-1740.874
0.146	-1880.874
0.148	-3226.874
0.150	-4245.874
0.152	-5797.874
0.154	-7600.874
0.156	-7106.874
0.158	-5590.874
0.160	-4843.874
0.162	-3255.874
0.164	-1086.874
0.166	-1816.874
0.168	-990.874
0.170	2997.126
0.172	4394.126
0.174	3448.126
0.176	2364.126
0.178	1028.126
0.180	424.126
0.182	-398.874
0.184	-1753.874
0.186	-3251.874
0.188	-4332.874
0.190	-4479.874
0.192	-5282.874
0.194	-7042.874
0.196	-7629.874
0.198	-6546.874
0.200	-4855.874
0.202	-3570.874
0.204	-2632.874
0.206	-2743.874
0.208	-1028.874
0.210	2768.126
0.212	4216.126
0.214	3708.126
0.216	3304.126
0.218	2600.126
0.220	1566.126
0.222	478.126
0.224	-748.874
0.226	-1856.874
0.228	-3416.874
0.230	-4919.874
0.232	-5823.874
0.234	-6423.874
0.236	-7012.874
0.238	-7094.874
0.240	-6344.874
0.242	-5230.874
0.244	-2429.874
0.246	-1800.874
0.248	-801.874
0.250	1969.126
0.252	3220.126
0.254	3505.126
0.256	3454.126
0.258	3494.126
0.260	2024.126
0.262	599.126
0.264	-1148.874
0.266	-1964.874
0.268	-3838.874
0.270	-5828.874
0.272	-7295.874
0.274	-7274.874
0.276	-6248.874
0.278	-5586.874
0.280	-4672.874
0.282	-3597.874
0.284	-1729.874
0.286	-1971.874
0.288	-550.874
0.290	2188.126
0.292	3294.126
0.294	3139.126
0.296	2459.126
0.298	1725.126
0.300	1568.126
0.302	1122.126
0.304	-882.874
0.306	-2636.874
0.308	-4336.874
0.310	-5536.874
0.312	-6371.874
0.314	-6879.874
0.316	-7454.874
0.318	-6003.874
0.320	-4141.874
0.322	-3253.874
0.324	-2849.874
0.326	-2920.874
0.328	1102.126
0.330	2825.126
0.332	3342.126
0.334	2953.126
0.336	1842.126
0.338	423.126
0.340	410.126
0.342	1024.126
0.344	264.126
0.346	-1832.874
0.348	-3720.874
0.350	-4136.874
0.352	-5083.874
0.354	-7295.874
0.356	-9007.874
0.358	-7261.874
0.360	-4271.874
0.362	-2760.874
0.364	-3160.874
0.366	-2917.874
0.368	380.126
0.370	1454.126
0.372	2221.126
0.374	3165.126
0.376	4470.126
0.378	5224.126
0.380	3224.126
0.382	1531.126
0.384	68.126
0.386	-2575.874
0.388	-4778.874
0.390	-4445.874
0.392	-4548.874
0.394	-5718.874
0.396	-6720.874
0.398	-6368.874
0.400	-5018.874
0.402	-3854.874
0.404	-2888.874
0.406	-1326.874
0.408	1571.126
0.410	3333.126
0.412	3413.126
0.414	2783.126
0.416	2530.126
0.418	1787.126
0.420	991.126
0.422	16.126
0.424	-1511.874
0.426	-2765.874
0.428	-3803.874
0.430	-4651.874
0.432	-6503.874
0.434	-7722.874
0.436	-6218.874
0.438	-5838.874
0.440	-5438.874
0.442	-3633.874
0.444	-3079.874
0.446	-1777.874
0.448	1087.126
0.450	1764.126
0.452	2222.126
0.454	2164.126
0.456	1816.126
0.458	1366.126
0.460	723.126
0.462	198.126
0.464	-572.874
0.466	-2212.874
0.468	-4319.874
0.470	-5859.874
0.472	-7215.874
0.474	-8135.874
0.476	-8064.874
0.478	-7286.874
0.480	-6138.874
0.482	-5144.874
0.484	-4138.874
0.486	-2164.874
0.488	2149.126
0.490	4205.126
0.492	4043.126
0.494	3160.126
0.496	2316.126
0.498	1806.126
0.500	2281.126
0.502	3141.126
0.504	1627.126
0.506	-515.874
0.508	-2025.874
0.510	-3200.874
0.512	-5193.874
0.514	-5633.874
0.516	-4758.874
0.518	-3436.874
0.520	-2159.874
0.522	-1546.874
0.524	-1655.874
0.526	1756.126
0.528	4085.126
0.530	4279.126
0.532	4919.126
0.534	5184.126
0.536	5412.126
0.538	6040.126
0.540	4547.126
0.542	2518.126
0.544	431.126
0.546	-450.874
0.548	-405.874
0.550	-1763.874
0.552	-3316.874
0.554	-4035.874
0.556	-5128.874
0.558	-3933.874
0.560	-1804.874
0.562	-2200.874
0.564	-891.874
0.566	3019.126
0.568	4648.126
0.570	5954.126
0.572	6879.126
0.574	7035.126
0.576	6451.126
0.578	5113.126
0.580	3293.126
0.582	1979.126
0.584	993.126
0.586	-563.874
0.588	-1869.874
0.590	-3351.874
0.592	-5090.874
0.594	-5191.874
0.596	-4821.874
0.598	-4700.874
0.600	-4188.874
0.602	-3940.874
0.604	-3138.874
0.606	-335.874
0.608	1201.126
0.610	1915.126
0.612	2733.126
0.614	2521.126
0.616	2750.126
0.618	1249.126
0.620	-835.874
0.622	-1340.874
0.624	-1835.874
0.626	-1958.874
0.628	-2945.874
0.630	-5109.874
0.632	-7271.874
0.634	-8341.874
0.636	-8427.874
0.638	-6806.874
0.640	-4578.874
0.642	-4970.874
0.644	-4445.874
0.646	-1058.874
0.648	959.126
0.650	2553.126
0.652	3461.126
0.654	2934.126
0.656	2267.126
0.658	1204.126
0.660	762.126
0.662	-480.874
0.664	-2305.874
0.666	-4146.874
0.668	-6191.874
0.670	-7471.874
0.672	-7701.874
0.674	-7141.874
0.676	-6745.874
0.678	-6265.874
0.680	-5176.874
0.682	-5190.874
0.684	-3926.874
0.686	-766.874
0.688	1394.126
0.690	2064.126
0.692	1290.126
0.694	344.126
0.696	-616.874
0.698	-397.874
0.700	-228.874
0.702	-1055.874
0.704	-2539.874
0.706	-3805.874
0.708	-5061.874
0.710	-5760.874
0.712	-6883.874
0.714	-6947.874
0.716	-5481.874
0.718	-5041.874
0.720	-4871.874
0.722	-4678.874
0.724	-1865.874
0.726	3239.126
0.728	6204.126
0.730	8298.126
0.732	10993.126
0.734	12942.126
0.736	14163.126
0.738	15567.126
0.740	17524.126
0.742	19594.126
0.744	20213.126
0.746	20178.126
0.748	21620.126
0.750	24520.126
0.752	28339.126
0.754	30061.126
0.756	31853.126
0.758	33574.126
0.760	34602.126
0.762	37333.126
0.764	42523.126
0.766	43451.126
0.768	41232.126
0.770	38587.126
0.772	35714.126
0.774	32018.126
0.776	27708.126
0.778	21761.126
0.780	16471.126
0.782	11960.126
0.784	7541.126
0.786	4320.126
0.788	2765.126
0.790	1236.126
0.792	-205.874
0.794	-1371.874
0.796	-2641.874
0.798	-2993.874
0.800	-4357.874
0.802	-4428.874
0.804	-1436.874
0.806	784.126
0.808	3419.126
0.810	4051.126
0.812	3123.126
0.814	2087.126
0.816	1432.126
0.818	33.126
0.820	-2151.874
0.822	-4135.874
0.824	-4770.874
0.826	-6946.874
0.828	-8784.874
0.830	-9176.874
0.832	-9443.874
0.834	-9175.874
0.836	-8345.874
0.838	-6861.874
0.840	-7380.874
0.842	-6723.874
0.844	-2483.874
0.846	436.126
0.848	1356.126
0.850	2407.126
0.852	3251.126
0.854	2868.126
0.856	1573.126
0.858	1166.126
0.860	657.126
0.862	-470.874
0.864	-2060.874
0.866	-4644.874
0.868	-6108.874
0.870	-6541.874
0.872	-6658.874
0.874	-6034.874
0.876	-5363.874
0.878	-5045.874
0.880	-5640.874
0.882	-4644.874
0.884	-1589.874
0.886	496.126
0.888	1384.126
0.890	1463.126
0.892	1759.126
0.894	3381.126
0.896	3544.126
0.898	2896.126
0.900	1594.126
0.902	-556.874
0.904	-2080.874
0.906	-3410.874
0.908	-4574.874
0.910	-5605.874
0.912	-6203.874
0.914	-5991.874
0.916	-6516.874
0.918	-6792.874
0.920	-7010.874
0.922	-5602.874
0.924	-2840.874
0.926	-654.874
0.928	3720.126
0.930	5318.126
0.932	4093.126
0.934	3982.126
0.936	4062.126
0.938	2793.126
0.940	1316.126
0.942	-863.874
0.944	-1100.874
0.946	-1196.874
0.948	-3303.874
0.950	-5240.874
0.952	-5564.874
0.954	-4921.874
0.956	-4912.874
0.958	-5706.874
0.960	-6193.874
0.962	-2200.874
0.964	655.126
0.966	2620.126
0.968	3573.126
0.970	3733.126
0.972	4897.126
0.974	5489.126
0.976	4691.126
0.978	2543.126
0.980	1878.126
0.982	1993.126
0.984	590.126
0.986	-1422.874
0.988	-2936.874
0.990	-3953.874
0.992	-3893.874
0.994	-3931.874
0.996	-4558.874
0.998	-4576.874
1.000	-3780.874
1.002	-590.874
1.004	913.126
1.006	2461.126
1.008	4601.126
1.010	4786.126
1.012	5093.126
1.014	5871.126
1.016	4596.126
1.018	3502.126
1.020	2897.126
1.022	2065.126
1.024	480.126
1.026	-1088.874
1.028	-2125.874
1.030	-3136.874
1.032	-3586.874
1.034	-3883.874
1.036	-3571.874
1.038	-3810.874
1.040	-2273.874
1.042	763.126
1.044	2344.126
1.046	4162.126
1.048	6224.126
1.050	7134.126
1.052	6564.126
1.054	6274.126
1.056	5909.126
1.058	4319.126
1.060	3098.126
1.062	2019.126
1.064	1735.126
1.066	1056.126
1.068	-673.874
1.070	-2883.874
1.072	-3711.874
1.074	-2824.874
1.076	-1938.874
1.078	-2788.874
1.080	-2020.874
1.082	1668.126
1.084	4824.126
1.086	6933.126
1.088	7214.126
1.090	7597.126
1.092	6689.126
1.094	6449.126
1.096	6904.126
1.098	6765.126
1.100	6623.126
1.102	6553.126
1.104	5993.126
1.106	4016.126
1.108	2439.126
1.110	1633.126
1.112	1070.126
1.114	569.126
1.116	1176.126
1.118	571.126
1.120	1810.126
1.122	5422.126
1.124	6988.126
1.126	8004.126
1.128	9971.126
1.130	10492.126
1.132	11551.126
1.134	11028.126
1.136	10066.126
1.138	10233.126
1.140	10726.126
1.142	9148.126
1.144	6088.126
1.146	4114.126
1.148	4214.126
1.150	3506.126
1.152	2108.126
1.154	3014.126
1.156	4007.126
1.158	3664.126
1.160	7036.126
1.162	8911.126
1.164	9271.126
1.166	11213.126
1.168	12229.126
1.170	12798.126
1.172	14578.126
1.174	15363.126
1.176	14446.126
1.178	14528.126
1.180	13512.126
1.182	11829.126
1.184	9858.126
1.186	8322.126
1.188	7513.126
1.190	6531.126
1.192	6587.126
1.194	6905.126
1.196	6707.126
1.198	7464.126
1.200	10432.126
1.202	12372.126
1.204	13400.126
1.206	14391.126
1.208	14939.126
1.210	15781.126
1.212	16479.126
1.214	16024.126
1.216	15329.126
1.218	15003.126
1.220	14031.126
1.222	12446.126
1.224	10743.126
1.226	8978.126
1.228	8629.126
1.230	8998.126
1.232	8814.126
1.234	7473.126
1.236	5365.126
1.238	6586.126
1.240	10215.126
1.242	10764.126
1.244	11356.126
1.246	13206.126
1.248	14651.126
1.250	15602.126
1.252	15916.126
1.254	14524.126
1.256	12759.126
1.258	12691.126
1.260	13008.126
1.262	12103.126
1.264	10017.126
1.266	6819.126
1.268	5504.126
1.270	4484.126
1.272	3031.126
1.274	2152.126
1.276	1156.126
1.278	2455.126
1.280	5257.126
1.282	6391.126
1.284	6563.126
1.286	8786.126
1.288	10780.126
1.290	10006.126
1.292	8840.126
1.294	8561.126
1.296	8619.126
1.298	8176.126
1.300	7130.126
1.302	5148.126
1.304	2624.126
1.306	288.126
1.308	-1451.874
1.310	-2718.874
1.312	-2812.874
1.314	-2865.874
1.316	-4808.874
1.318	-4297.874
1.320	-953.874
1.322	173.126
1.324	1190.126
1.326	3902.126
1.328	4937.126
1.330	5068.126
1.332	5130.126
1.334	5270.126
1.336	4496.126
1.338	2316.126
1.340	1766.126
1.342	733.126
1.344	-1212.874
1.346	-3247.874
1.348	-3898.874
1.350	-4745.874
1.352	-5950.874
1.354	-5622.874
1.356	-6326.874
1.358	-5510.874
1.360	-2233.874
1.362	-395.874
1.364	108.126
1.366	1359.126
1.368	2401.126
1.370	3483.126
1.372	3084.126
1.374	2558.126
1.376	2869.126
1.378	2354.126
1.380	2145.126
1.382	828.126
1.384	-2034.874
1.386	-4669.874
1.388	-5191.874
1.390	-6593.874
1.392	-7076.874
1.394	-6827.874
1.396	-7385.874
1.398	-4323.874
1.400	-3559.874
1.402	-2875.874
1.404	-1226.874
1.406	301.126
1.408	1342.126
1.410	3092.126
1.412	3698.126
1.414	3234.126
1.416	2434.126
1.418	2011.126
1.420	679.126
1.422	-1213.874
1.424	-3101.874
1.426	-4253.874
1.428	-5297.874
1.430	-6464.874
1.432	-6666.874
1.434	-7701.874
1.436	-7250.874
1.438	-5227.874
1.440	-4728.874
1.442	-4003.874
1.444	-1760.874
1.446	228.126
1.448	732.126
1.450	1009.126
1.452	1647.126
1.454	2770.126
1.456	3084.126
1.458	2644.126
1.460	1476.126
1.462	-471.874
1.464	-2625.874
1.466	-4930.874
1.468	-5377.874
1.470	-5948.874
1.472	-6316.874
1.474	-7780.874
1.476	-8564.874
1.478	-4206.874
1.480	-2781.874
1.482	-2421.874
1.484	-350.874
1.486	1043.126
1.488	1554.126
1.490	2122.126
1.492	2390.126
1.494	1841.126
1.496	885.126
1.498	-77.874
1.500	-644.874
1.502	-1733.874
1.504	-3364.874
1.506	-5358.874
1.508	-5866.874
1.510	-6653.874
1.512	-7256.874
1.514	-7605.874
1.516	-6008.874
1.518	-3481.874
1.520	-2674.874
1.522	-2400.874
1.524	-1185.874
1.526	899.126
1.528	2851.126
1.530	3233.126
1.532	3202.126
1.534	2832.126
1.536	1900.126
1.538	1319.126
1.540	45.126
1.542	-2022.874
1.544	-2733.874
1.546	-3651.874
1.548	-4764.874
1.550	-6037.874
1.552	-5870.874
1.554	-6972.874
1.556	-6805.874
1.558	-4029.874
1.560	-2901.874
1.562	-2019.874
1.564	-853.874
1.566	419.126
1.568	1425.126
1.570	1888.126
1.572	2501.126
1.574	2956.126
1.576	2731.126
1.578	2591.126
1.580	369.126
1.582	-1596.874
1.584	-3095.874
1.586	-4847.874
1.588	-6425.874
1.590	-7296.874
1.592	-7333.874
1.594	-8540.874
1.596	-7203.874
1.598	-5743.874
1.600	-4080.874
1.602	-1873.874
1.604	596.126
1.606	2127.126
1.608	3010.126
1.610	3838.126
1.612	3674.126
1.614	2648.126
1.616	649.126
1.618	-41.874
1.620	597.126
1.622	-565.874
1.624	-1930.874
1.626	-4035.874
1.628	-5260.874
1.630	-6153.874
1.632	-7287.874
1.634	-7932.874
1.636	-5840.874
1.638	-3983.874
1.640	-2927.874
1.642	-1852.874
1.644	-495.874
1.646	1332.126
1.648	2468.126
1.650	3804.126
1.652	3351.126
1.654	2873.126
1.656	2586.126
1.658	1833.126
1.660	818.126
1.662	-919.874
1.664	-2006.874
1.666	-2974.874
1.668	-4396.874
1.670	-6549.874
1.672	-8700.874
1.674	-8929.874
1.676	-5980.874
1.678	-4439.874
1.680	-3007.874
1.682	-683.874
1.684	-281.874
1.686	621.126
1.688	1559.126
1.690	2098.126
1.692	2728.126
1.694	3413.126
1.696	2151.126
1.698	355.126
1.700	-910.874
1.702	-2736.874
1.704	-3901.874
1.706	-4608.874
1.708	-4731.874
1.710	-4737.874
1.712	-6598.874
1.714	-6915.874
1.716	-4531.874
1.718	-3638.874
1.720	-3491.874
1.722	-2180.874
1.724	-345.874
1.726	1036.126
1.728	2188.126
1.730	2758.126
1.732	3064.126
1.734	3663.126
1.736	2839.126
1.738	928.126
1.740	-551.874
1.742	-829.874
1.744	-2143.874
1.746	-3482.874
1.748	-3376.874
1.750	-5370.874
1.752	-9068.874
1.754	-9230.874
1.756	-5686.874
1.758	-4400.874
1.760	-2836.874
1.762	-2215.874
1.764	-501.874
1.766	2414.126
1.768	2558.126
1.770	2718.126
1.772	3485.126
1.774	3625.126
1.776	3385.126
1.778	3034.126
1.780	1846.126
1.782	-406.874
1.784	-2372.874
1.786	-4151.874
1.788	-5024.874
1.790	-6920.874
1.792	-8522.874
1.794	-5995.874
1.796	-4669.874
1.798	-3968.874
1.800	-2789.874
1.802	-1178.874
1.804	85.126
1.806	911.126
1.808	1661.126
1.810	2804.126
1.812	3680.126
1.814	4070.126
1.816	4248.126
1.818	2397.126
1.820	-450.874
1.822	-2246.874
1.824	-3541.874
1.826	-4323.874
1.828	-4955.874
1.830	-6976.874
1.832	-7258.874
1.834	-4776.874
1.836	-4950.874
1.838	-4786.874
1.840	-2350.874
1.842	556.126
1.844	2932.126
1.846	3881.126
1.848	4788.126
1.850	5163.126
1.852	5164.126
1.854	5187.126
1.856	4811.126
1.858	4284.126
1.860	2963.126
1.862	1243.126
1.864	108.126
1.866	-1005.874
1.868	-2818.874
1.870	-4928.874
1.872	-5157.874
1.874	-3438.874
1.876	-2648.874
1.878	-2565.874
1.880	-1368.874
1.882	353.126
1.884	3178.126
1.886	5298.126
1.888	5828.126
1.890	5892.126
1.892	5694.126
1.894	6466.126
1.896	4738.126
1.898	3563.126
1.900	1722.126
1.902	776.126
1.904	331.126
1.906	-799.874
1.908	-1633.874
1.910	-3850.874
1.912	-4396.874
1.914	-2666.874
1.916	-2015.874
1.918	-996.874
1.920	-1068.874
1.922	-379.874
1.924	1366.126
1.926	1977.126
1.928	3458.126
1.930	4724.126
1.932	5266.126
1.934	4542.126
1.936	3556.126
1.938	2347.126
1.940	238.126
1.942	-1169.874
1.944	-2481.874
1.946	-4474.874
1.948	-5945.874
1.950	-8628.874
1.952	-8834.874
1.954	-6231.874
1.956	-4706.874
1.958	-4270.874
1.960	-2930.874
1.962	-728.874
1.964	754.126
1.966	996.126
1.968	2090.126
1.970	3252.126
1.972	3758.126
1.974	2679.126
1.976	1489.126
1.978	933.126
1.980	-126.874
1.982	-1297.874
1.984	-2866.874
1.986	-3815.874
1.988	-5900.874
1.990	-7266.874
1.992	-6767.874
1.994	-6795.874
1.996	-4895.874
1.998	-3711.874
2.000	-3501.874
2.002	-2205.874
2.004	-872.874
2.006	705.126
2.008	1788.126
2.010	2511.126
2.012	4068.126
2.014	3331.126
2.016	808.126
2.018	-99.874
2.020	-1651.874
2.022	-2691.874
2.024	-3393.874
2.026	-4220.874
2.028	-5926.874
2.030	-7468.874
2.032	-6121.874
2.034	-6128.874
2.036	-5944.874
2.038	-5012.874
2.040	-3916.874
2.042	-2441.874
2.044	-152.874
2.046	1128.126
2.048	1964.126
2.050	3174.126
2.052	3039.126
2.054	2415.126
2.056	2038.126
2.058	2708.126
2.060	3775.126
2.062	4278.126
2.064	4034.126
2.066	5399.126
2.068	5859.126
2.070	6846.126
2.072	11183.126
2.074	14362.126
2.076	17233.126
2.078	20139.126
2.080	24336.126
2.082	28846.126
2.084	33371.126
2.086	37281.126
2.088	40513.126
2.090	43226.126
2.092	45172.126
2.094	46291.126
2.096	47186.126
2.098	45759.126
2.100	42011.126
2.102	36256.126
2.104	31099.126
2.106	26764.126
2.108	20819.126
2.110	15051.126
2.112	11548.126
2.114	7181.126
2.116	3843.126
2.118	2343.126
2.120	2529.126
2.122	3666.126
2.124	4463.126
2.126	4999.126
2.128	5211.126
2.130	4669.126
2.132	3479.126
2.134	2493.126
2.136	1323.126
2.138	-70.874
2.140	-1472.874
2.142	-4831.874
2.144	-7548.874
2.146	-7801.874
2.148	-9303.874
2.150	-10170.874
2.152	-8831.874
2.154	-8482.874
2.156	-9372.874
2.158	-9006.874
2.160	-6021.874
2.162	-3917.874
2.164	-3265.874
2.166	-2598.874
2.168	-966.874
2.170	298.126
2.172	906.126
2.174	992.126
2.176	306.126
2.178	184.126
2.180	-549.874
2.182	-1522.874
2.184	-3073.874
2.186	-4405.874
2.188	-6281.874
2.190	-6188.874
2.192	-4446.874
2.194	-5239.874
2.196	-5201.874
2.198	-4088.874
2.200	-2359.874
2.202	-1107.874
2.204	-153.874
2.206	814.126
2.208	2178.126
2.210	2873.126
2.212	2436.126
2.214	2201.126
2.216	1973.126
2.218	1274.126
2.220	436.126
2.222	-740.874
2.224	-2056.874
2.226	-4330.874
2.228	-6158.874
2.230	-5268.874
2.232	-6198.874
2.234	-6769.874
2.236	-5130.874
2.238	-3816.874
2.240	-3730.874
2.242	-2928.874
2.244	751.126
2.246	3456.126
2.248	3751.126
2.250	2881.126
2.252	2893.126
2.254	3573.126
2.256	2818.126
2.258	2305.126
2.260	914.126
2.262	-942.874
2.264	-2137.874
2.266	-4220.874
2.268	-6460.874
2.270	-6034.874
2.272	-5239.874
2.274	-3473.874
2.276	-2315.874
2.278	-1779.874
2.280	-2310.874
2.282	-827.874
2.284	2128.126
2.286	3103.126
2.288	3486.126
2.290	3921.126
2.292	4495.126
2.294	3659.126
2.296	3068.126
2.298	2521.126
2.300	1786.126
2.302	2125.126
2.304	139.126
2.306	-3127.874
2.308	-4430.874
2.310	-3920.874
2.312	-4586.874
2.314	-4937.874
2.316	-3075.874
2.318	-1489.874
2.320	-121.874
2.322	2088.126
2.324	3738.126
2.326	4127.126
2.328	4988.126
2.330	5611.126
2.332	5100.126
2.334	4846.126
2.336	4771.126
2.338	3753.126
2.340	2191.126
2.342	1177.126
2.344	-80.874
2.346	-2264.874
2.348	-3356.874
2.350	-1832.874
2.352	-2341.874
2.354	-3330.874
2.356	-3145.874
2.358	-1600.874
2.360	1191.126
2.362	2944.126
2.364	4546.126
2.366	5263.126
2.368	5528.126
2.370	6933.126
2.372	7501.126
2.374	7168.126
2.376	6569.126
2.378	5599.126
2.380	3768.126
2.382	1679.126
2.384	-739.874
2.386	-2450.874
2.388	-2232.874
2.390	-1423.874
2.392	-1705.874
2.394	-2375.874
2.396	-680.874
2.398	404.126
2.400	1355.126
2.402	3374.126
2.404	5798.126
2.406	6971.126
2.408	7292.126
2.410	7364.126
2.412	7737.126
2.414	6696.126
2.416	5907.126
2.418	6528.126
2.420	6513.126
2.422	4816.126
2.424	1966.126
2.426	-528.874
2.428	202.126
2.430	628.126
2.432	549.126
2.434	871.126
2.436	1966.126
2.438	2466.126
2.440	4079.126
2.442	5791.126
2.444	7387.126
2.446	8165.126
2.448	10658.126
2.450	11784.126
2.452	11087.126
2.454	10475.126
2.456	9589.126
2.458	8112.126
2.460	6701.126
2.462	5581.126
2.464	3471.126
2.466	3172.126
2.468	5164.126
2.470	3695.126
2.472	2317.126
2.474	2496.126
2.476	4277.126
2.478	5667.126
2.480	6921.126
2.482	9138.126
2.484	12324.126
2.486	13769.126
2.488	14637.126
2.490	14746.126
2.492	13766.126
2.494	12844.126
2.496	11781.126
2.498	10636.126
2.500	9945.126
2.502	9423.126
2.504	8076.126
2.506	6446.126
2.508	7069.126
2.510	7316.126
2.512	7316.126
2.514	7704.126
2.516	8499.126
2.518	8559.126
2.520	9414.126
2.522	11568.126
2.524	13909.126
2.526	15415.126
2.528	15867.126
2.530	15481.126
2.532	16526.126
2.534	17998.126
2.536	17073.126
2.538	16038.126
2.540	14031.126
2.542	11994.126
2.544	8596.126
2.546	7326.126
2.548	8944.126
2.550	8839.126
2.552	8343.126
2.554	8757.126
2.556	9658.126
2.558	10339.126
2.560	11977.126
2.562	12776.126
2.564	14479.126
2.566	15199.126
2.568	15872.126
2.570	16076.126
2.572	16403.126
2.574	17028.126
2.576	14760.126
2.578	12802.126
2.580	11128.126
2.582	9679.126
2.584	6823.126
2.586	6260.126
2.588	5944.126
2.590	5386.126
2.592	6246.126
2.594	7093.126
2.596	7597.126
2.598	7623.126
2.600	7882.126
2.602	9039.126
2.604	11356.126
2.606	11187.126
2.608	12688.126
2.610	13643.126
2.612	13078.126
2.614	11392.126
2.616	9803.126
2.618	9372.126
2.620	7275.126
2.622	4889.126
2.624	1911.126
2.626	1693.126
2.628	901.126
2.630	-108.874
2.632	-195.874
2.634	-308.874
2.636	674.126
2.638	731.126
2.640	1413.126
2.642	3689.126
2.644	5691.126
2.646	6470.126
2.648	7240.126
2.650	7283.126
2.652	6603.126
2.654	6242.126
2.656	5312.126
2.658	3540.126
2.660	1931.126
2.662	-102.874
2.664	-2178.874
2.666	-1438.874
2.668	-2922.874
2.670	-4067.874
2.672	-5036.874
2.674	-4468.874
2.676	-3449.874
2.678	-2505.874
2.680	-770.874
2.682	1149.126
2.684	2414.126
2.686	2434.126
2.688	3103.126
2.690	3879.126
2.692	3467.126
2.694	2503.126
2.696	2169.126
2.698	2051.126
2.700	425.126
2.702	-3362.874
2.704	-6024.874
2.706	-3872.874
2.708	-3993.874
2.710	-6028.874
2.712	-5949.874
2.714	-5835.874
2.716	-4948.874
2.718	-4283.874
2.720	-3151.874
2.722	-539.874
2.724	1151.126
2.726	1989.126
2.728	3333.126
2.730	4749.126
2.732	5040.126
2.734	3155.126
2.736	918.126
2.738	-159.874
2.740	-1066.874
2.742	-2591.874
2.744	-4590.874
2.746	-4955.874
2.748	-5349.874
2.750	-5724.874
2.752	-5876.874
2.754	-5114.874
2.756	-4600.874
2.758	-3554.874
2.760	-2101.874
2.762	-963.874
2.764	578.126
2.766	1098.126
2.768	1724.126
2.770	1649.126
2.772	1839.126
2.774	1722.126
2.776	794.126
2.778	-305.874
2.780	-1354.874
2.782	-3981.874
2.784	-6638.874
2.786	-6793.874
2.788	-7851.874
2.790	-8503.874
2.792	-7240.874
2.794	-6067.874
2.796	-4890.874
2.798	-2888.874
2.800	-1018.874
2.802	-178.874
2.804	772.126
2.806	1424.126
2.808	1551.126
2.810	2616.126
2.812	3134.126
2.814	2071.126
2.816	1231.126
2.818	815.126
2.820	-637.874
2.822	-4156.874
2.824	-5263.874
2.826	-4259.874
2.828	-4983.874
2.830	-5398.874
2.832	-5980.874
2.834	-6067.874
2.836	-4491.874
2.838	-3490.874
2.840	-2523.874
2.842	-1231.874
2.844	186.126
2.846	1179.126
2.848	2227.126
2.850	2527.126
2.852	2754.126
2.854	2343.126
2.856	894.126
2.858	-779.874
2.860	-3343.874
2.862	-4588.874
2.864	-3183.874
2.866	-4255.874
2.868	-5730.874
2.870	-6008.874
2.872	-5663.874
2.874	-5025.874
2.876	-3790.874
2.878	-3340.874
2.880	-2086.874
2.882	175.126
2.884	1804.126
2.886	3025.126
2.888	3246.126
2.890	2238.126
2.892	1662.126
2.894	1327.126
2.896	1440.126
2.898	2373.126
2.900	-438.874
2.902	-2636.874
2.904	-2483.874
2.906	-4872.874
2.908	-6779.874
2.910	-6798.874
2.912	-6575.874
2.914	-6778.874
2.916	-5330.874
2.918	-3381.874
2.920	-966.874
2.922	695.126
2.924	558.126
2.926	1177.126
2.928	2601.126
2.930	3355.126
2.932	3531.126
2.934	3278.126
2.936	1883.126
2.938	188.126
2.940	-1988.874
2.942	-2086.874
2.944	-1685.874
2.946	-3018.874
2.948	-4673.874
2.950	-5590.874
2.952	-5465.874
2.954	-4896.874
2.956	-4311.874
2.958	-2606.874
2.960	-1165.874
2.962	56.126
2.964	1498.126
2.966	2646.126
2.968	3175.126
2.970	2314.126
2.972	2066.126
2.974	2352.126
2.976	2091.126
2.978	348.126
2.980	-2448.874
2.982	-3619.874
2.984	-3195.874
2.986	-3605.874
2.988	-5063.874
2.990	-6137.874
2.992	-6316.874
2.994	-6066.874
2.996	-5212.874
2.998	-3935.874
3.000	-2263.874
3.002	271.126
3.004	2261.126
3.006	3956.126
3.008	5403.126
3.010	4618.126
3.012	3716.126
3.014	2273.126
3.016	777.126
3.018	-694.874
3.020	-3710.874
3.022	-4344.874
3.024	-2140.874
3.026	-2720.874
3.028	-4703.874
3.030	-6313.874
3.032	-5725.874
3.034	-4455.874
3.036	-3927.874
3.038	-3389.874
3.040	-1346.874
3.042	826.126
3.044	1659.126
3.046	2527.126
3.048	3751.126
3.050	4801.126
3.052	4768.126
3.054	3293.126
3.056	1126.126
3.058	-1032.874
3.060	-3396.874
3.062	-2965.874
3.064	-4458.874
3.066	-5409.874
3.068	-5993.874
3.070	-6675.874
3.072	-7789.874
3.074	-6769.874
3.076	-5016.874
3.078	-3703.874
3.080	-1721.874
3.082	106.126
3.084	846.126
3.086	2549.126
3.088	5329.126
3.090	6026.126
3.092	4599.126
3.094	2504.126
3.096	574.126
3.098	-1467.874
3.100	-2986.874
3.102	-2922.874
3.104	-4102.874
3.106	-5566.874
3.108	-5355.874
3.110	-4366.874
3.112	-4854.874
3.114	-5272.874
3.116	-4690.874
3.118	-3126.874
3.120	-753.874
3.122	1151.126
3.124	2494.126
3.126	3126.126
3.128	3508.126
3.130	3412.126
3.132	2859.126
3.134	2044.126
3.136	1131.126
3.138	-416.874
3.140	-2135.874
3.142	-2423.874
3.144	-3213.874
3.146	-4343.874
3.148	-5280.874
3.150	-5701.874
3.152	-5729.874
3.154	-5411.874
3.156	-4725.874
3.158	-2563.874
3.160	-85.874
3.162	1791.126
3.164	3222.126
3.166	3905.126
3.168	4644.126
3.170	5271.126
3.172	5781.126
3.174	5223.126
3.176	3177.126
3.178	156.126
3.180	-1608.874
3.182	-2003.874
3.184	-3151.874
3.186	-4192.874
3.188	-4362.874
3.190	-3603.874
3.192	-2857.874
3.194	-2636.874
3.196	-1597.874
3.198	-63.874
3.200	1877.126
3.202	3764.126
3.204	4966.126
3.206	5879.126
3.208	6606.126
3.210	6412.126
3.212	5856.126
3.214	4253.126
3.216	2706.126
3.218	440.126
3.220	-356.874
3.222	709.126
3.224	-729.874
3.226	-2725.874
3.228	-3775.874
3.230	-2890.874
3.232	-2473.874
3.234	-2796.874
3.236	-3181.874
3.238	-2065.874
3.240	-298.874
3.242	1468.126
3.244	2899.126
3.246	4217.126
3.248	5341.126
3.250	5248.126
3.252	5139.126
3.254	2971.126
3.256	308.126
3.258	-1781.874
3.260	-2063.874
3.262	-3556.874
3.264	-4483.874
3.266	-5665.874
3.268	-6571.874
3.270	-7578.874
3.272	-7831.874
3.274	-5530.874
3.276	-3220.874
3.278	-1561.874
3.280	197.126
3.282	1384.126
3.284	2027.126
3.286	2394.126
3.288	3031.126
3.290	2713.126
3.292	2407.126
3.294	2328.126
3.296	-296.874
3.298	-2730.874
3.300	-1773.874
3.302	-3104.874
3.304	-4950.874
3.306	-5847.874
3.308	-6069.874
3.310	-6046.874
3.312	-5521.874
3.314	-4912.874
3.316	-5019.874
3.318	-5038.874
3.320	-3983.874
3.322	-460.874
3.324	837.126
3.326	1602.126
3.328	2120.126
3.330	3317.126
3.332	3735.126
3.334	2369.126
3.336	-66.874
3.338	-1282.874
3.340	-920.874
3.342	-2499.874
3.344	-3840.874
3.346	-5301.874
3.348	-7436.874
3.350	-8206.874
3.352	-7411.874
3.354	-5646.874
3.356	-4356.874
3.358	-2848.874
3.360	-1210.874
3.362	1213.126
3.364	2949.126
3.366	4215.126
3.368	4411.126
3.370	4069.126
3.372	3316.126
3.374	1499.126
3.376	-802.874
3.378	-1240.874
3.380	363.126
3.382	987.126
3.384	1866.126
3.386	2628.126
3.388	3828.126
3.390	5531.126
3.392	7572.126
3.394	10996.126
3.396	14076.126
3.398	17477.126
3.400	21471.126
3.402	26290.126
3.404	30562.126
3.406	34391.126
3.408	36754.126
3.410	38159.126
3.412	40939.126
3.414	42464.126
3.416	42745.126
3.418	42156.126
3.420	41938.126
3.422	38244.126
3.424	32935.126
3.426	27969.126
3.428	22941.126
3.430	19101.126
3.432	15548.126
3.434	12167.126
3.436	8582.126
3.438	5176.126
3.440	5016.126
3.442	6829.126
3.444	7023.126
3.446	6924.126
3.448	6391.126
3.450	5554.126
3.452	5700.126
3.454	3221.126
3.456	-984.874
3.458	-2820.874
3.460	-2450.874
3.462	-3993.874
3.464	-5995.874
3.466	-7293.874
3.468	-6656.874
3.470	-7595.874
3.472	-8530.874
3.474	-7517.874
3.476	-6316.874
3.478	-5253.874
3.480	-4223.874
3.482	-2834.874
3.484	-2281.874
3.486	-2613.874
3.488	-2333.874
3.490	-81.874
3.492	1558.126
3.494	-439.874
3.496	-3442.874
3.498	-3162.874
3.500	-4699.874
3.502	-5675.874
3.504	-6077.874
3.506	-6930.874
3.508	-7385.874
3.510	-6188.874
3.512	-5049.874
3.514	-4120.874
3.516	-3671.874
3.518	-2577.874
3.520	-1416.874
3.522	96.126
3.524	1154.126
3.526	1689.126
3.528	2384.126
3.530	3118.126
3.532	3058.126
3.534	1766.126
3.536	531.126
3.538	453.126
3.540	-392.874
3.542	-1623.874
3.544	-3322.874
3.546	-5950.874
3.548	-6976.874
3.550	-5513.874
3.552	-4677.874
3.554	-3536.874
3.556	-2447.874
3.558	-921.874
3.560	293.126
3.562	2081.126
3.564	3180.126
3.566	3750.126
3.568	3806.126
3.570	3856.126
3.572	3771.126
3.574	1271.126
3.576	273.126
3.578	1126.126
3.580	-660.874
3.582	-3064.874
3.584	-4363.874
3.586	-5110.874
3.588	-5258.874
3.590	-5273.874
3.592	-4859.874
3.594	-3566.874
3.596	-1833.874
3.598	-244.874
3.600	983.126
3.602	2599.126
3.604	3374.126
3.606	4567.126
3.608	5281.126
3.610	4586.126
3.612	4054.126
3.614	1749.126
3.616	508.126
3.618	1083.126
3.620	-287.874
3.622	-2273.874
3.624	-2895.874
3.626	-4151.874
3.628	-5279.874
3.630	-5240.874
3.632	-3863.874
3.634	-1965.874
3.636	-1638.874
3.638	-1173.874
3.640	-471.874
3.642	918.126
3.644	2330.126
3.646	3698.126
3.648	5077.126
3.650	5719.126
3.652	5690.126
3.654	3880.126
3.656	2548.126
3.658	2823.126
3.660	1139.126
3.662	-1313.874
3.664	-2031.874
3.666	-2674.874
3.668	-3311.874
3.670	-3745.874
3.672	-2926.874
3.674	-1558.874
3.676	-103.874
3.678	2171.126
3.680	3667.126
3.682	3611.126
3.684	4960.126
3.686	5705.126
3.688	5476.126
3.690	6053.126
3.692	5358.126
3.694	4154.126
3.696	5542.126
3.698	4293.126
3.700	2655.126
3.702	714.126
3.704	-1643.874
3.706	-2676.874
3.708	-2731.874
3.710	-2318.874
3.712	-1657.874
3.714	-895.874
3.716	1.126
3.718	1776.126
3.720	4099.126
3.722	5583.126
3.724	6131.126
3.726	7752.126
3.728	7591.126
3.730	7503.126
3.732	7191.126
3.734	4972.126
3.736	5403.126
3.738	3839.126
3.740	2506.126
3.742	1851.126
3.744	122.126
3.746	-1356.874
3.748	-1474.874
3.750	-195.874
3.752	1154.126
3.754	2121.126
3.756	2085.126
3.758	3800.126
3.760	6702.126
3.762	8152.126
3.764	9938.126
3.766	11523.126
3.768	11649.126
3.770	10760.126
3.772	8608.126
3.774	7264.126
3.776	8743.126
3.778	7804.126
3.780	5216.126
3.782	3615.126
3.784	2752.126
3.786	2068.126
3.788	1346.126
3.790	1218.126
3.792	2069.126
3.794	4335.126
3.796	5563.126
3.798	5303.126
3.800	5838.126
3.802	9299.126
3.804	12189.126
3.806	12988.126
3.808	12378.126
3.810	12154.126
3.812	11226.126
3.814	10517.126
3.816	12338.126
3.818	11877.126
3.820	9224.126
3.822	7759.126
3.824	6981.126
3.826	5300.126
3.828	5009.126
3.830	6021.126
3.832	6284.126
3.834	6745.126
3.836	7052.126
3.838	9101.126
3.840	12328.126
3.842	14491.126
3.844	15642.126
3.846	17178.126
3.848	17322.126
3.850	16913.126
3.852	14438.126
3.854	13177.126
3.856	14267.126
3.858	12676.126
3.860	10501.126
3.862	8757.126
3.864	7792.126
3.866	7550.126
3.868	7285.126
3.870	6899.126
3.872	7487.126
3.874	9378.126
3.876	10989.126
3.878	12968.126
3.880	14352.126
3.882	15598.126
3.884	16049.126
3.886	17098.126
3.888	17259.126
3.890	16405.126
3.892	13919.126
3.894	13749.126
3.896	14208.126
3.898	13256.126
3.900	10178.126
3.902	8286.126
3.904	7599.126
3.906	6322.126
3.908	5504.126
3.910	4794.126
3.912	5231.126
3.914	6651.126
3.916	7626.126
3.918	8671.126
3.920	10216.126
3.922	11532.126
3.924	11877.126
3.926	12299.126
3.928	12346.126
3.930	10728.126
3.932	9240.126
3.934	11004.126
3.936	9771.126
3.938	6867.126
3.940	4030.126
3.942	1479.126
3.944	785.126
3.946	1073.126
3.948	293.126
3.950	-776.874
3.952	249.126
3.954	1119.126
3.956	1544.126
3.958	3446.126
3.960	5043.126
3.962	6021.126
3.964	6733.126
3.966	7154.126
3.968	6832.126
3.970	5466.126
3.972	4431.126
3.974	4513.126
3.976	3614.126
3.978	2733.126
3.980	-59.874
3.982	-2708.874
3.984	-3482.874
3.986	-3498.874
3.988	-4361.874
3.990	-3926.874
3.992	-2993.874
3.994	-2904.874
3.996	-2835.874
3.998	-1555.874
4.000	-474.874
4.002	1083.126
4.004	3564.126
4.006	4337.126
4.008	3496.126
4.010	1919.126
4.012	1278.126
4.014	1366.126
4.016	918.126
4.018	-818.874
4.020	-2423.874
4.022	-3073.874
4.024	-3563.874
4.026	-4520.874
4.028	-5317.874
4.030	-6996.874
4.032	-6881.874
4.034	-5606.874
4.036	-4096.874
4.038	-1481.874
4.040	915.126
4.042	2872.126
4.044	3211.126
4.046	3434.126
4.048	3316.126
4.050	1763.126
4.052	981.126
4.054	811.126
4.056	316.126
4.058	-1538.874
4.060	-3105.874
4.062	-3240.874
4.064	-5122.874
4.066	-7682.874
4.068	-7840.874
4.070	-7163.874
4.072	-6830.874
4.074	-6353.874
4.076	-5143.874
4.078	-3257.874
4.080	-246.874
4.082	2075.126
4.084	2454.126
4.086	3294.126
4.088	4016.126
4.090	2226.126
4.092	879.126
4.094	991.126
4.096	-21.874
4.098	-1483.874
4.100	-2708.874
4.102	-4758.874
4.104	-6245.874
4.106	-6483.874
4.108	-6433.874
4.110	-6773.874
4.112	-6730.874
4.114	-5775.874
4.116	-4131.874
4.118	-1450.874
4.120	352.126
4.122	1068.126
4.124	1958.126
4.126	2598.126
4.128	1156.126
4.130	-5.874
4.132	1622.126
4.134	109.126
4.136	-1920.874
4.138	-3431.874
4.140	-4247.874
4.142	-4154.874
4.144	-5299.874
4.146	-7002.874
4.148	-7765.874
4.150	-8313.874
4.152	-7457.874
4.154	-5948.874
4.156	-4453.874
4.158	-3825.874
4.160	-1672.874
4.162	1264.126
4.164	2796.126
4.166	3133.126
4.168	241.126
4.170	-483.874
4.172	1461.126
4.174	1209.126
4.176	6.126
4.178	-853.874
4.180	-2703.874
4.182	-4423.874
4.184	-5202.874
4.186	-6067.874
4.188	-6331.874
4.190	-6257.874
4.192	-5316.874
4.194	-4638.874
4.196	-2616.874
4.198	-1232.874
4.200	-159.874
4.202	1588.126
4.204	2297.126
4.206	2444.126
4.208	1750.126
4.210	1028.126
4.212	1958.126
4.214	1429.126
4.216	-605.874
4.218	-2330.874
4.220	-2681.874
4.222	-4204.874
4.224	-6228.874
4.226	-7230.874
4.228	-7690.874
4.230	-6998.874
4.232	-5497.874
4.234	-4736.874
4.236	-2794.874
4.238	-613.874
4.240	-93.874
4.242	-166.874
4.244	609.126
4.246	2081.126
4.248	1897.126
4.250	621.126
4.252	2319.126
4.254	2163.126
4.256	1318.126
4.258	-139.874
4.260	-2851.874
4.262	-4706.874
4.264	-5412.874
4.266	-6729.874
4.268	-6893.874
4.270	-6890.874
4.272	-5886.874
4.274	-3448.874
4.276	-2613.874
4.278	-648.874
4.280	1693.126
4.282	3045.126
4.284	3815.126
4.286	3742.126
4.288	2481.126
4.290	2087.126
4.292	2793.126
4.294	2114.126
4.296	1164.126
4.298	-187.874
4.300	-2210.874
4.302	-3229.874
4.304	-4872.874
4.306	-6412.874
4.308	-7057.874
4.310	-6965.874
4.312	-5503.874
4.314	-3696.874
4.316	-2133.874
4.318	-605.874
4.320	1252.126
4.322	1860.126
4.324	2618.126
4.326	2688.126
4.328	2133.126
4.330	4075.126
4.332	3675.126
4.334	2072.126
4.336	-109.874
4.338	-2131.874
4.340	-3710.874
4.342	-4855.874
4.344	-6330.874
4.346	-7650.874
4.348	-5388.874
4.350	-5061.874
4.352	-6127.874
4.354	-5633.874
4.356	-4328.874
4.358	-1963.874
4.360	-33.874
4.362	563.126
4.364	2605.126
4.366	2875.126
4.368	2483.126
4.370	3902.126
4.372	2274.126
4.374	294.126
4.376	-28.874
4.378	-905.874
4.380	-3659.874
4.382	-4841.874
4.384	-5363.874
4.386	-5108.874
4.388	-4861.874
4.390	-5807.874
4.392	-4966.874
4.394	-4303.874
4.396	-3726.874
4.398	-1812.874
4.400	531.126
4.402	866.126
4.404	440.126
4.406	-253.874
4.408	829.126
4.410	3773.126
4.412	3461.126
4.414	2010.126
4.416	107.126
4.418	-1800.874
4.420	-3555.874
4.422	-4662.874
4.424	-5841.874
4.426	-6563.874
4.428	-6849.874
4.430	-6210.874
4.432	-5923.874
4.434	-5350.874
4.436	-3585.874
4.438	-720.874
4.440	2428.126
4.442	2868.126
4.444	2622.126
4.446	2271.126
4.448	2333.126
4.450	2847.126
4.452	2965.126
4.454	2261.126
4.456	521.126
4.458	-1967.874
4.460	-3705.874
4.462	-4415.874
4.464	-4615.874
4.466	-4938.874
4.468	-5753.874
4.470	-4949.874
4.472	-3443.874
4.474	-2408.874
4.476	-712.874
4.478	1037.126
4.480	1684.126
4.482	2665.126
4.484	4335.126
4.486	4629.126
4.488	5173.126
4.490	6320.126
4.492	4814.126
4.494	3117.126
4.496	1880.126
4.498	1495.126
4.500	282.126
4.502	-1371.874
4.504	-3385.874
4.506	-3773.874
4.508	-3420.874
4.510	-3255.874
4.512	-2050.874
4.514	-844.874
4.516	282.126
4.518	2338.126
4.520	3880.126
4.522	4505.126
4.524	4528.126
4.526	3953.126
4.528	6138.126
4.530	7106.126
4.532	5908.126
4.534	4196.126
4.536	2017.126
4.538	-24.874
4.540	-2240.874
4.542	-3580.874
4.544	-4804.874
4.546	-6465.874
4.548	-5856.874
4.550	-5681.874
4.552	-6029.874
4.554	-5586.874
4.556	-4210.874
4.558	-2103.874
4.560	-454.874
4.562	-518.874
4.564	218.126
4.566	1330.126
4.568	5114.126
4.570	5195.126
4.572	2438.126
4.574	219.126
4.576	-1107.874
4.578	-2310.874
4.580	-3914.874
4.582	-5270.874
4.584	-6713.874
4.586	-7208.874
4.588	-7388.874
4.590	-7239.874
4.592	-6723.874
4.594	-5356.874
4.596	-3275.874
4.598	-1916.874
4.600	1097.126
4.602	3179.126
4.604	1652.126
4.606	129.126
4.608	2348.126
4.610	3165.126
4.612	899.126
4.614	-922.874
4.616	-1078.874
4.618	-2361.874
4.620	-3093.874
4.622	-3498.874
4.624	-4694.874
4.626	-6860.874
4.628	-8228.874
4.630	-8180.874
4.632	-7340.874
4.634	-5931.874
4.636	-2938.874
4.638	-1748.874
4.640	374.126
4.642	2804.126
4.644	2115.126
4.646	1446.126
4.648	2419.126
4.650	2125.126
4.652	1224.126
4.654	140.126
4.656	-2033.874
4.658	-3889.874
4.660	-5061.874
4.662	-5144.874
4.664	-5621.874
4.666	-6870.874
4.668	-6748.874
4.670	-6118.874
4.672	-6160.874
4.674	-4470.874
4.676	-2471.874
4.678	-580.874
4.680	2013.126
4.682	3873.126
4.684	4678.126
4.686	6003.126
4.688	8982.126
4.690	12172.126
4.692	13793.126
4.694	14231.126
4.696	15255.126
4.698	16743.126
4.700	17085.126
4.702	18091.126
4.704	20010.126
4.706	21903.126
4.708	24451.126
4.710	27280.126
4.712	31007.126
4.714	34071.126
4.716	37629.126
4.718	41086.126
4.720	43829.126
4.722	45338.126
4.724	43027.126
4.726	39459.126
4.728	37951.126
4.730	34353.126
4.732	28326.126
4.734	21696.126
4.736	15830.126
4.738	11544.126
4.740	6763.126
4.742	3247.126
4.744	1179.126
4.746	243.126
4.748	-1307.874
4.750	-2005.874
4.752	-1540.874
4.754	-557.874
4.756	30.126
4.758	-248.874
4.760	191.126
4.762	324.126
4.764	66.126
4.766	2389.126
4.768	2729.126
4.770	1544.126
4.772	273.126
4.774	-1318.874
4.776	-3786.874
4.778	-6179.874
4.780	-8368.874
4.782	-9738.874
4.784	-9968.874
4.786	-9500.874
4.788	-10156.874
4.790	-10438.874
4.792	-8435.874
4.794	-6531.874
4.796	-4873.874
4.798	-3041.874
4.800	-556.874
4.802	-613.874
4.804	-103.874
4.806	2128.126
4.808	2734.126
4.810	2168.126
4.812	965.126
4.814	-892.874
4.816	-2169.874
4.818	-2959.874
4.820	-4718.874
4.822	-6646.874
4.824	-7821.874
4.826	-7950.874
4.828	-7980.874
4.830	-6694.874
4.832	-4760.874
4.834	-3460.874
4.836	-1425.874
4.838	249.126
4.840	736.126
4.842	-371.874
4.844	708.126
4.846	2743.126
4.848	3573.126
4.850	3104.126
4.852	3012.126
4.854	2843.126
4.856	486.126
4.858	-1824.874
4.860	-3372.874
4.862	-3982.874
4.864	-5118.874
4.866	-6073.874
4.868	-6479.874
4.870	-5869.874
4.872	-4296.874
4.874	-2735.874
4.876	-1261.874
4.878	254.126
4.880	2163.126
4.882	1864.126
4.884	1662.126
4.886	3674.126
4.888	3758.126
4.890	2071.126
4.892	1172.126
4.894	1416.126
4.896	526.126
4.898	-1400.874
4.900	-3092.874
4.902	-4476.874
4.904	-6126.874
4.906	-6855.874
4.908	-5408.874
4.910	-4533.874
4.912	-4236.874
4.914	-3478.874
4.916	-2185.874
4.918	-665.874
4.920	1581.126
4.922	1093.126
4.924	1079.126
4.926	3488.126
4.928	4336.126
4.930	3696.126
4.932	3459.126
4.934	3198.126
4.936	1479.126
4.938	-1508.874
4.940	-4151.874
4.942	-5201.874
4.944	-4361.874
4.946	-3315.874
4.948	-3289.874
4.950	-3746.874
4.952	-2979.874
4.954	-2246.874
4.956	-956.874
4.958	1716.126
4.960	2943.126
4.962	2461.126
4.964	5445.126
4.966	5724.126
4.968	5328.126
4.970	4983.126
4.972	3852.126
4.974	3190.126
4.976	1678.126
4.978	19.126
4.980	-1586.874
4.982	-2443.874
4.984	-3426.874
4.986	-3785.874
4.988	-3905.874
4.990	-3153.874
4.992	-2843.874
4.994	-3088.874
4.996	-941.874
4.998	1594.126
5.000	1931.126
5.002	3748.126
5.004	6158.126
5.006	6215.126
5.008	6459.126
5.010	5564.126
5.012	5361.126
5.014	3381.126
5.016	1758.126
5.018	2042.126
5.020	-101.874
5.022	-2271.874
5.024	-1964.874
5.026	-2594.874
5.028	-3091.874
5.030	-2750.874
5.032	-868.874
5.034	869.126
5.036	3099.126
5.038	5223.126
5.040	5986.126
5.042	6998.126
5.044	8933.126
5.046	8344.126
5.048	7475.126
5.050	6683.126
5.052	5418.126
5.054	4188.126
5.056	3226.126
5.058	2509.126
5.060	1625.126
5.062	1082.126
5.064	231.126
5.066	-383.874
5.068	16.126
5.070	963.126
5.072	1325.126
5.074	1932.126
5.076	3819.126
5.078	6289.126
5.080	7428.126
5.082	7689.126
5.084	9681.126
5.086	10465.126
5.088	9656.126
5.090	9940.126
5.092	10429.126
5.094	9166.126
5.096	7676.126
5.098	6052.126
5.100	4554.126
5.102	3786.126
5.104	2883.126
5.106	1531.126
5.108	1438.126
5.110	2823.126
5.112	4099.126
5.114	6131.126
5.116	9157.126
5.118	10424.126
5.120	10392.126
5.122	10780.126
5.124	12840.126
5.126	12291.126
5.128	11798.126
5.130	11568.126
5.132	10674.126
5.134	9461.126
5.136	9188.126
5.138	7934.126
5.140	7154.126
5.142	6030.126
5.144	5131.126
5.146	5506.126
5.148	5307.126
5.150	6118.126
5.152	7651.126
5.154	8503.126
5.156	10026.126
5.158	11096.126
5.160	11261.126
5.162	14550.126
5.164	16392.126
5.166	16927.126
5.168	15894.126
5.170	15071.126
5.172	14081.126
5.174	12601.126
5.176	11471.126
5.178	9389.126
5.180	8169.126
5.182	6433.126
5.184	4756.126
5.186	5916.126
5.188	7435.126
5.190	7597.126
5.192	7956.126
5.194	8874.126
5.196	10368.126
5.198	11775.126
5.200	12231.126
5.202	15008.126
5.204	15224.126
5.206	13400.126
5.208	12276.126
5.210	12093.126
5.212	12600.126
5.214	11487.126
5.216	9276.126
5.218	5811.126
5.220	3973.126
5.222	4339.126
5.224	4142.126
5.226	3642.126
5.228	2853.126
5.230	2333.126
5.232	1988.126
5.234	2350.126
5.236	4256.126
5.238	6514.126
5.240	8671.126
5.242	11053.126
5.244	11184.126
5.246	9858.126
5.248	7991.126
5.250	7496.126
5.252	6241.126
5.254	4963.126
5.256	3372.126
5.258	784.126
5.260	528.126
5.262	-865.874
5.264	-2376.874
5.266	-3055.874
5.268	-3459.874
5.270	-3133.874
5.272	-2354.874
5.274	-1540.874
5.276	89.126
5.278	1169.126
5.280	1948.126
5.282	4001.126
5.284	4687.126
5.286	5524.126
5.288	5573.126
5.290	4744.126
5.292	3116.126
5.294	877.126
5.296	-419.874
5.298	-2331.874
5.300	-4840.874
5.302	-5382.874
5.304	-5513.874
5.306	-6243.874
5.308	-7476.874
5.310	-7663.874
5.312	-6671.874
5.314	-4061.874
5.316	-987.874
5.318	-424.874
5.320	656.126
5.322	3479.126
5.324	4439.126
5.326	4125.126
5.328	3437.126
5.330	1731.126
5.332	251.126
5.334	-1352.874
5.336	-2866.874
5.338	-4436.874
5.340	-5741.874
5.342	-5813.874
5.344	-6533.874
5.346	-7255.874
5.348	-7029.874
5.350	-6353.874
5.352	-5901.874
5.354	-4791.874
5.356	-3433.874
5.358	-3610.874
5.360	-1968.874
5.362	832.126
5.364	1822.126
5.366	1050.126
5.368	643.126
5.370	826.126
5.372	238.126
5.374	-1424.874
5.376	-2996.874
5.378	-4033.874
5.380	-5358.874
5.382	-7023.874
5.384	-7620.874
5.386	-6952.874
5.388	-5940.874
5.390	-5893.874
5.392	-5528.874
5.394	-4339.874
5.396	-3651.874
5.398	-2224.874
5.400	1161.126
5.402	1338.126
5.404	1279.126
5.406	1491.126
5.408	1476.126
5.410	1196.126
5.412	208.126
5.414	-1009.874
5.416	-2441.874
5.418	-4770.874
5.420	-6750.874
5.422	-7645.874
5.424	-7978.874
5.426	-6656.874
5.428	-7520.874
5.430	-7737.874
5.432	-6416.874
5.434	-4800.874
5.436	-3311.874
5.438	-1428.874
5.440	1082.126
5.442	1984.126
5.444	1277.126
5.446	221.126
5.448	185.126
5.450	-51.874
5.452	43.126
5.454	-723.874
5.456	-3615.874
5.458	-6350.874
5.460	-6837.874
5.462	-6799.874
5.464	-6866.874
5.466	-6908.874
5.468	-7465.874
5.470	-7156.874
5.472	-5656.874
5.474	-3610.874
5.476	-3054.874
5.478	-1810.874
5.480	1405.126
5.482	1916.126
5.484	1173.126
5.486	528.126
5.488	1107.126
5.490	1242.126
5.492	705.126
5.494	-631.874
5.496	-2600.874
5.498	-4555.874
5.500	-5790.874
5.502	-7490.874
5.504	-8314.874
5.506	-7788.874
5.508	-7448.874
5.510	-6711.874
5.512	-4785.874
5.514	-3886.874
5.516	-4187.874
5.518	-1644.874
5.520	1363.126
5.522	2397.126
5.524	2584.126
5.526	2117.126
5.528	728.126
5.530	-81.874
5.532	-196.874
5.534	-472.874
5.536	-1823.874
5.538	-4158.874
5.540	-6386.874
5.542	-8103.874
5.544	-7536.874
5.546	-6591.874
5.548	-7433.874
5.550	-7353.874
5.552	-5139.874
5.554	-4188.874
5.556	-3861.874
5.558	-1272.874
5.560	1617.126
5.562	3700.126
5.564	4648.126
5.566	3527.126
5.568	1846.126
5.570	642.126
5.572	278.126
5.574	-386.874
5.576	-1410.874
5.578	-3742.874
5.580	-6379.874
5.582	-8129.874
5.584	-8018.874
5.586	-7046.874
5.588	-6509.874
5.590	-5542.874
5.592	-4154.874
5.594	-2901.874
5.596	-3238.874
5.598	-166.874
5.600	1301.126
5.602	2623.126
5.604	3173.126
5.606	2503.126
5.608	1734.126
5.610	1155.126
5.612	434.126
5.614	-1513.874
5.616	-3883.874
5.618	-5486.874
5.620	-5504.874
5.622	-6400.874
5.624	-7183.874
5.626	-7473.874
5.628	-7524.874
5.630	-6313.874
5.632	-3745.874
5.634	-2472.874
5.636	-981.874
5.638	2036.126
5.640	2703.126
5.642	3349.126
5.644	2260.126
5.646	2033.126
5.648	2404.126
5.650	789.126
5.652	-717.874
5.654	-1104.874
5.656	-2023.874
5.658	-3765.874
5.660	-4245.874
5.662	-5788.874
5.664	-6429.874
5.666	-6705.874
5.668	-7304.874
5.670	-6553.874
5.672	-5128.874
5.674	-4618.874
5.676	-3027.874
5.678	421.126
5.680	1670.126
5.682	1916.126
5.684	2406.126
5.686	2451.126
5.688	1624.126
5.690	618.126
5.692	-139.874
5.694	-1564.874
5.696	-2954.874
5.698	-4920.874
5.700	-5541.874
5.702	-6073.874
5.704	-6928.874
5.706	-7313.874
5.708	-7418.874
5.710	-6135.874
5.712	-4238.874
5.714	-4555.874
5.716	-3993.874
5.718	-629.874
5.720	1019.126
5.722	1831.126
5.724	2727.126
5.726	2729.126
5.728	2346.126
5.730	1042.126
5.732	-666.874
5.734	-2325.874
5.736	-4275.874
5.738	-5443.874
5.740	-5590.874
5.742	-6151.874
5.744	-6656.874
5.746	-6256.874
5.748	-5440.874
5.750	-3428.874
5.752	-2293.874
5.754	-3185.874
5.756	-2237.874
5.758	943.126
5.760	2701.126
5.762	4144.126
5.764	4702.126
5.766	4660.126
5.768	4679.126
5.770	3792.126
5.772	2229.126
5.774	528.126
5.776	-1149.874
5.778	-2559.874
5.780	-3189.874
5.782	-4441.874
5.784	-5182.874
5.786	-4766.874
5.788	-4793.874
5.790	-4692.874
5.792	-4225.874
5.794	-2936.874
5.796	1236.126
5.798	3486.126
5.800	4004.126
5.802	5352.126
5.804	6466.126
5.806	6017.126
5.808	5027.126
5.810	3405.126
5.812	1779.126
5.814	1135.126
5.816	34.126
5.818	-2326.874
5.820	-4035.874
5.822	-4629.874
5.824	-4766.874
5.826	-5442.874
5.828	-4902.874
5.830	-3989.874
5.832	-4411.874
5.834	-3168.874
5.836	-42.874
5.838	1143.126
5.840	1640.126
5.842	2904.126
5.844	3629.126
5.846	3753.126
5.848	2554.126
5.850	276.126
5.852	-1560.874
5.854	-2813.874
5.856	-4589.874
5.858	-5884.874
5.860	-7200.874
5.862	-8146.874
5.864	-8051.874
5.866	-7527.874
5.868	-6640.874
5.870	-5425.874
5.872	-4990.874
5.874	-4813.874
5.876	-2264.874
5.878	-663.874
5.880	-616.874
5.882	234.126
5.884	898.126
5.886	1058.126
5.888	-101.874
5.890	-970.874
5.892	-962.874
5.894	-1553.874
5.896	-3686.874
5.898	-5110.874
5.900	-6093.874
5.902	-7419.874
5.904	-8046.874
5.906	-6768.874
5.908	-5891.874
5.910	-5628.874
5.912	-6506.874
5.914	-5483.874
5.916	-1689.874
5.918	59.126
5.920	-78.874
5.922	979.126
5.924	1783.126
5.926	1089.126
5.928	381.126
5.930	-283.874
5.932	-1210.874
5.934	-2270.874
5.936	-3881.874
5.938	-5772.874
5.940	-7345.874
5.942	-8758.874
5.944	-9155.874
5.946	-9206.874
5.948	-8338.874
5.950	-7061.874
5.952	-6900.874
5.954	-5347.874
5.956	-1714.874
5.958	431.126
5.960	1029.126
5.962	1638.126
5.964	1686.126
5.966	1370.126
5.968	970.126
5.970	675.126
5.972	928.126
5.974	1162.126
5.976	1974.126
5.978	3655.126
5.980	4896.126
5.982	5109.126
5.984	6790.126
5.986	10449.126
5.988	14022.126
5.990	16853.126
5.992	19164.126
5.994	24943.126
5.996	30290.126
5.998	34001.126
6.000	36638.126
6.002	39996.126
6.004	42525.126
6.006	44494.126
6.008	45488.126
6.010	44734.126
6.012	42388.126
6.014	36982.126
6.016	30846.126
6.018	25412.126
6.020	20479.126
6.022	15940.126
6.024	10883.126
6.026	6045.126
6.028	2882.126
6.030	1337.126
6.032	-166.874
6.034	1962.126
6.036	4176.126
6.038	5596.126
6.040	6393.126
6.042	6296.126
6.044	4576.126
6.046	2886.126
6.048	1513.126
6.050	-1165.874
6.052	-2879.874
6.054	-3210.874
6.056	-4290.874
6.058	-6719.874
6.060	-8910.874
6.062	-10258.874
6.064	-10103.874
6.066	-9788.874
6.068	-9437.874
6.070	-9881.874
6.072	-9660.874
6.074	-7393.874
6.076	-5034.874
6.078	-3545.874
6.080	-1272.874
6.082	218.126
6.084	818.126
6.086	473.126
6.088	-965.874
6.090	-2567.874
6.092	-4097.874
6.094	-4023.874
6.096	-4061.874
6.098	-5230.874
6.100	-6646.874
6.102	-7949.874
6.104	-7865.874
6.106	-8296.874
6.108	-6923.874
6.110	-7083.874
6.112	-6435.874
6.114	-3118.874
6.116	-1415.874
6.118	-652.874
6.120	-590.874
6.122	891.126
6.124	1591.126
6.126	1052.126
6.128	955.126
6.130	595.126
6.132	-911.874
6.134	-2726.874
6.136	-4103.874
6.138	-5709.874
6.140	-7076.874
6.142	-8213.874
6.144	-9084.874
6.146	-8820.874
6.148	-7562.874
6.150	-7878.874
6.152	-7283.874
6.154	-3356.874
6.156	-429.874
6.158	1038.126
6.160	2042.126
6.162	2671.126
6.164	2495.126
6.166	1947.126
6.168	896.126
6.170	168.126
6.172	-604.874
6.174	-2381.874
6.176	-4511.874
6.178	-5620.874
6.180	-5978.874
6.182	-6538.874
6.184	-7436.874
6.186	-7653.874
6.188	-7365.874
6.190	-7628.874
6.192	-5150.874
6.194	-425.874
6.196	1349.126
6.198	2245.126
6.200	2803.126
6.202	2754.126
6.204	2972.126
6.206	3306.126
6.208	2150.126
6.210	213.126
6.212	191.126
6.214	-1153.874
6.216	-3755.874
6.218	-5275.874
6.220	-5750.874
6.222	-7135.874
6.224	-7810.874
6.226	-7354.874
6.228	-6673.874
6.230	-5625.874
6.232	-2398.874
6.234	-209.874
6.236	901.126
6.238	1970.126
6.240	2738.126
6.242	2554.126
6.244	1704.126
6.246	2033.126
6.248	2290.126
6.250	1176.126
6.252	-33.874
6.254	-1959.874
6.256	-3830.874
6.258	-3907.874
6.260	-4449.874
6.262	-5636.874
6.264	-6306.874
6.266	-5595.874
6.268	-4881.874
6.270	-4499.874
6.272	-1612.874
6.274	274.126
6.276	1411.126
6.278	2794.126
6.280	3598.126
6.282	4951.126
6.284	5013.126
6.286	4774.126
6.288	3966.126
6.290	2216.126
6.292	721.126
6.294	-110.874
6.296	-1564.874
6.298	-2843.874
6.300	-3673.874
6.302	-4293.874
6.304	-4916.874
6.306	-3600.874
6.308	-3958.874
6.310	-4330.874
6.312	-230.874
6.314	1997.126
6.316	3018.126
6.318	4799.126
6.320	5256.126
6.322	4599.126
6.324	4611.126
6.326	6366.126
6.328	5935.126
6.330	4841.126
6.332	3904.126
6.334	2383.126
6.336	555.126
6.338	-570.874
6.340	-2341.874
6.342	-4649.874
6.344	-4916.874
6.346	-3821.874
6.348	-2236.874
6.350	-1035.874
6.352	606.126
6.354	2883.126
6.356	4754.126
6.358	6379.126
6.360	8139.126
6.362	8685.126
6.364	8609.126
6.366	8877.126
6.368	7464.126
6.370	4689.126
6.372	3689.126
6.374	4180.126
6.376	4193.126
6.378	3226.126
6.380	1851.126
6.382	536.126
6.384	201.126
6.386	-72.874
6.388	-275.874
6.390	1294.126
6.392	4393.126
6.394	6494.126
6.396	8383.126
6.398	9179.126
6.400	9263.126
6.402	9946.126
6.404	10682.126
6.406	12131.126
6.408	12180.126
6.410	10389.126
6.412	8033.126
6.414	6506.126
6.416	5531.126
6.418	4733.126
6.420	3649.126
6.422	3463.126
6.424	3269.126
6.426	2330.126
6.428	2148.126
6.430	5593.126
6.432	7471.126
6.434	9181.126
6.436	11448.126
6.438	13635.126
6.440	14894.126
6.442	14363.126
6.444	13293.126
6.446	14147.126
6.448	13972.126
6.450	12038.126
6.452	10806.126
6.454	9489.126
6.456	8673.126
6.458	7392.126
6.460	5731.126
6.462	4841.126
6.464	4714.126
6.466	3868.126
6.468	4007.126
6.470	7167.126
6.472	8840.126
6.474	10226.126
6.476	12092.126
6.478	12925.126
6.480	13377.126
6.482	13916.126
6.484	13779.126
6.486	14094.126
6.488	13411.126
6.490	11579.126
6.492	8932.126
6.494	6898.126
6.496	6075.126
6.498	3794.126
6.500	1491.126
6.502	1023.126
6.504	2237.126
6.506	2444.126
6.508	3773.126
6.510	5634.126
6.512	6052.126
6.514	6564.126
6.516	7656.126
6.518	8361.126
6.520	8874.126
6.522	9533.126
6.524	9531.126
6.526	9294.126
6.528	7997.126
6.530	6966.126
6.532	5876.126
6.534	3431.126
6.536	-168.874
6.538	-1319.874
6.540	-1020.874
6.542	-1556.874
6.544	-3005.874
6.546	-5412.874
6.548	-5311.874
6.550	-1964.874
6.552	145.126
6.554	1294.126
6.556	2289.126
6.558	2471.126
6.560	2806.126
6.562	3461.126
6.564	3825.126
6.566	4326.126
6.568	2938.126
6.570	1501.126
6.572	178.126
6.574	-711.874
6.576	-2263.874
6.578	-4026.874
6.580	-6087.874
6.582	-6936.874
6.584	-6583.874
6.586	-7372.874
6.588	-7026.874
6.590	-4981.874
6.592	-4010.874
6.594	-2406.874
6.596	578.126
6.598	2277.126
6.600	2126.126
6.602	1500.126
6.604	1456.126
6.606	1491.126
6.608	335.126
6.610	-851.874
6.612	-2501.874
6.614	-3870.874
6.616	-5346.874
6.618	-7426.874
6.620	-9790.874
6.622	-10065.874
6.624	-8531.874
6.626	-9210.874
6.628	-6559.874
6.630	-5721.874
6.632	-4506.874
6.634	-2414.874
6.636	-1513.874
6.638	-925.874
6.640	1069.126
6.642	3148.126
6.644	2901.126
6.646	1772.126
6.648	1032.126
6.650	-255.874
6.652	-1567.874
6.654	-3973.874
6.656	-7324.874
6.658	-8108.874
6.660	-8135.874
6.662	-8409.874
6.664	-9188.874
6.666	-10177.874
6.668	-7229.874
6.670	-6093.874
6.672	-4528.874
6.674	-2238.874
6.676	-856.874
6.678	-536.874
6.680	-16.874
6.682	1241.126
6.684	1738.126
6.686	598.126
6.688	-648.874
6.690	-1485.874
6.692	-2605.874
6.694	-4099.874
6.696	-5485.874
6.698	-6031.874
6.700	-7526.874
6.702	-8685.874
6.704	-10243.874
6.706	-10908.874
6.708	-7798.874
6.710	-5264.874
6.712	-4720.874
6.714	-3671.874
6.716	-1689.874
6.718	-2015.874
6.720	-1454.874
6.722	637.126
6.724	904.126
6.726	190.126
6.728	-1361.874
6.730	-2393.874
6.732	-4020.874
6.734	-4465.874
6.736	-6115.874
6.738	-7906.874
6.740	-8031.874
6.742	-7698.874
6.744	-8913.874
6.746	-9360.874
6.748	-6842.874
6.750	-5711.874
6.752	-4416.874
6.754	-2447.874
6.756	-960.874
6.758	-503.874
6.760	555.126
6.762	553.126
6.764	-67.874
6.766	559.126
6.768	106.126
6.770	-749.874
6.772	-2105.874
6.774	-3723.874
6.776	-5703.874
6.778	-6857.874
6.780	-7887.874
6.782	-8765.874
6.784	-9875.874
6.786	-9980.874
6.788	-6924.874
6.790	-6130.874
6.792	-5395.874
6.794	-3404.874
6.796	-998.874
6.798	366.126
6.800	1098.126
6.802	511.126
6.804	-905.874
6.806	-1696.874
6.808	-2010.874
6.810	-2226.874
6.812	-2370.874
6.814	-3923.874
6.816	-6683.874
6.818	-8260.874
6.820	-9785.874
6.822	-9289.874
6.824	-9756.874
6.826	-9605.874
6.828	-6698.874
6.830	-4576.874
6.832	-3257.874
6.834	-1911.874
6.836	-555.874
6.838	-30.874
6.840	1346.126
6.842	2516.126
6.844	1971.126
6.846	551.126
6.848	-971.874
6.850	-2557.874
6.852	-3551.874
6.854	-3576.874
6.856	-4847.874
6.858	-6043.874
6.860	-7271.874
6.862	-8854.874
6.864	-9635.874
6.866	-7463.874
6.868	-6137.874
6.870	-5622.874
6.872	-4765.874
6.874	-3353.874
6.876	-1215.874
6.878	506.126
6.880	2602.126
6.882	2241.126
6.884	1366.126
6.886	609.126
6.888	-41.874
6.890	-404.874
6.892	-2067.874
6.894	-4441.874
6.896	-5721.874
6.898	-6246.874
6.900	-7228.874
6.902	-9162.874
6.904	-10731.874
6.906	-9494.874
6.908	-6693.874
6.910	-4391.874
6.912	-3482.874
6.914	-2985.874
6.916	-966.874
6.918	211.126
6.920	1112.126
6.922	2181.126
6.924	1451.126
6.926	209.126
6.928	-1157.874
6.930	-1820.874
6.932	-3088.874
6.934	-4270.874
6.936	-4990.874
6.938	-4993.874
6.940	-6588.874
6.942	-9588.874
6.944	-11193.874
6.946	-8502.874
6.948	-5078.874
6.950	-4598.874
6.952	-3638.874
6.954	-2043.874
6.956	-588.874
6.958	-118.874
6.960	419.126
6.962	-99.874
6.964	-882.874
6.966	-996.874
6.968	-676.874
6.970	-317.874
6.972	-1455.874
6.974	-4289.874
6.976	-7318.874
6.978	-7298.874
6.980	-7170.874
6.982	-8761.874
6.984	-8642.874
6.986	-6746.874
6.988	-5863.874
6.990	-6270.874
6.992	-5545.874
6.994	-3550.874
6.996	-1840.874
6.998	-40.874
7.000	1900.126
7.002	1975.126
7.004	1826.126
7.006	1819.126
7.008	431.126
7.010	-856.874
7.012	-1665.874
7.014	-2520.874
7.016	-3756.874
7.018	-5178.874
7.020	-6521.874
7.022	-7903.874
7.024	-6995.874
7.026	-4524.874
7.028	-3976.874
7.030	-3505.874
7.032	-1886.874
7.034	-490.874
7.036	2184.126
7.038	3483.126
7.040	4043.126
7.042	3981.126
7.044	3766.126
7.046	3116.126
7.048	2009.126
7.050	1176.126
7.052	114.126
7.054	-1695.874
7.056	-3528.874
7.058	-4301.874
7.060	-5430.874
7.062	-6806.874
7.064	-4947.874
7.066	-4452.874
7.068	-3768.874
7.070	-2345.874
7.072	-1103.874
7.074	191.126
7.076	1973.126
7.078	3034.126
7.080	3431.126
7.082	3566.126
7.084	3676.126
7.086	3283.126
7.088	2558.126
7.090	949.126
7.092	-991.874
7.094	-2937.874
7.096	-3898.874
7.098	-3609.874
7.100	-7197.874
7.102	-8780.874
7.104	-6626.874
7.106	-6375.874
7.108	-5696.874
7.110	-4815.874
7.112	-4660.874
7.114	-3923.874
7.116	-250.874
7.118	1767.126
7.120	1254.126
7.122	511.126
7.124	-356.874
7.126	-979.874
7.128	-2139.874
7.130	-3041.874
7.132	-4052.874
7.134	-5308.874
7.136	-6438.874
7.138	-6949.874
7.140	-9332.874
7.142	-10537.874
7.144	-9298.874
7.146	-8335.874
7.148	-7432.874
7.150	-7001.874
7.152	-5645.874
7.154	-3375.874
7.156	-1265.874
7.158	-429.874
7.160	-847.874
7.162	-484.874
7.164	489.126
7.166	1274.126
7.168	99.126
7.170	-1586.874
7.172	-3819.874
7.174	-6893.874
7.176	-7466.874
7.178	-7585.874
7.180	-9958.874
7.182	-9038.874
7.184	-6344.874
7.186	-6727.874
7.188	-5896.874
7.190	-5418.874
7.192	-3931.874
7.194	-2141.874
7.196	-631.874
7.198	-817.874
7.200	-315.874
7.202	-30.874
7.204	-1001.874
7.206	-1715.874
7.208	-2980.874
7.210	-3461.874
7.212	-4477.874
7.214	-5134.874
7.216	-5605.874
7.218	-6642.874
7.220	-9561.874
7.222	-10348.874
7.224	-7982.874
7.226	-7123.874
7.228	-6388.874
7.230	-5695.874
7.232	-4647.874
7.234	-2353.874
7.236	284.126
7.238	2180.126
7.240	4550.126
7.242	6646.126
7.244	8511.126
7.246	9379.126
7.248	9836.126
7.250	10757.126
7.252	11557.126
7.254	11768.126
7.256	12081.126
7.258	12675.126
7.260	13007.126
7.262	18044.126
7.264	21955.126
7.266	26120.126
7.268	29037.126
7.270	31311.126
7.272	35719.126
7.274	40495.126
7.276	44079.126
7.278	45871.126
7.280	45873.126
7.282	42428.126
7.284	38059.126
7.286	35114.126
7.288	30100.126
7.290	25011.126
7.292	19348.126
7.294	11846.126
7.296	5919.126
7.298	638.126
7.300	-3310.874
7.302	-1073.874
7.304	-662.874
7.306	-1430.874
7.308	-1476.874
7.310	-977.874
7.312	-595.874
7.314	278.126
7.316	935.126
7.318	483.126
7.320	441.126
7.322	1187.126
7.324	1453.126
7.326	360.126
7.328	-826.874
7.330	-3481.874
7.332	-6951.874
7.334	-8108.874
7.336	-9257.874
7.338	-11478.874
7.340	-12873.874
7.342	-11591.874
7.344	-11497.874
7.346	-11530.874
7.348	-10687.874
7.350	-9691.874
7.352	-7285.874
7.354	-4773.874
7.356	-3796.874
7.358	-2966.874
7.360	-1928.874
7.362	-910.874
7.364	158.126
7.366	21.126
7.368	-360.874
7.370	-1045.874
7.372	-3184.874
7.374	-4923.874
7.376	-6085.874
7.378	-8145.874
7.380	-8761.874
7.382	-7585.874
7.384	-7750.874
7.386	-7671.874
7.388	-6630.874
7.390	-5763.874
7.392	-4237.874
7.394	-2495.874
7.396	-493.874
7.398	-605.874
7.400	-470.874
7.402	-79.874
7.404	-84.874
7.406	-527.874
7.408	-1834.874
7.410	-2941.874
7.412	-3036.874
7.414	-4440.874
7.416	-6307.874
7.418	-8385.874
7.420	-8302.874
7.422	-6885.874
7.424	-7503.874
7.426	-7660.874
7.428	-6901.874
7.430	-5773.874
7.432	-3611.874
7.434	-1879.874
7.436	254.126
7.438	2803.126
7.440	3183.126
7.442	1888.126
7.444	921.126
7.446	685.126
7.448	576.126
7.450	-1121.874
7.452	-3146.874
7.454	-4391.874
7.456	-5356.874
7.458	-6918.874
7.460	-8597.874
7.462	-7658.874
7.464	-7988.874
7.466	-7344.874
7.468	-5320.874
7.470	-4365.874
7.472	-3156.874
7.474	-1216.874
7.476	1236.126
7.478	2793.126
7.480	2969.126
7.482	2525.126
7.484	2131.126
7.486	1708.126
7.488	754.126
7.490	-458.874
7.492	-2271.874
7.494	-3670.874
7.496	-5946.874
7.498	-7911.874
7.500	-6111.874
7.502	-6303.874
7.504	-6446.874
7.506	-5482.874
7.508	-4303.874
7.510	-2696.874
7.512	-1103.874
7.514	246.126
7.516	1168.126
7.518	2744.126
7.520	3476.126
7.522	3542.126
7.524	3644.126
7.526	2758.126
7.528	2523.126
7.530	1280.126
7.532	-1697.874
7.534	-3918.874
7.536	-5005.874
7.538	-5831.874
7.540	-5828.874
7.542	-6345.874
7.544	-5897.874
7.546	-4270.874
7.548	-3633.874
7.550	-2782.874
7.552	-1011.874
7.554	1088.126
7.556	2321.126
7.558	2182.126
7.560	2644.126
7.562	3389.126
7.564	3431.126
7.566	2968.126
7.568	1823.126
7.570	1479.126
7.572	684.126
7.574	-1063.874
7.576	-4260.874
7.578	-7852.874
7.580	-5914.874
7.582	-3413.874
7.584	-3665.874
7.586	-4493.874
7.588	-3455.874
7.590	-2200.874
7.592	483.126
7.594	2801.126
7.596	2267.126
7.598	3392.126
7.600	6040.126
7.602	7681.126
7.604	7054.126
7.606	6116.126
7.608	5329.126
7.610	3408.126
7.612	1492.126
7.614	255.126
7.616	-1998.874
7.618	-2346.874
7.620	-881.874
7.622	-749.874
7.624	-913.874
7.626	-812.874
7.628	-112.874
7.630	1787.126
7.632	3888.126
7.634	5495.126
7.636	6423.126
7.638	7643.126
7.640	8519.126
7.642	9003.126
7.644	8884.126
7.646	8379.126
7.648	7315.126
7.650	5399.126
7.652	4166.126
7.654	3713.126
7.656	887.126
7.658	-56.874
7.660	1218.126
7.662	877.126
7.664	324.126
7.666	2024.126
7.668	3529.126
7.670	4119.126
7.672	5694.126
7.674	8933.126
7.676	10968.126
7.678	11488.126
7.680	11718.126
7.682	11890.126
7.684	11810.126
7.686	10852.126
7.688	9837.126
7.690	8519.126
7.692	7806.126
7.694	5981.126
7.696	3435.126
7.698	3708.126
7.700	3823.126
7.702	4068.126
7.704	4063.126
7.706	4420.126
7.708	5626.126
7.710	7732.126
7.712	9625.126
7.714	11300.126
7.716	12097.126
7.718	13130.126
7.720	13846.126
7.722	14037.126
7.724	14219.126
7.726	12597.126
7.728	11342.126
7.730	10098.126
7.732	9111.126
7.734	6460.126
7.736	4885.126
7.738	5626.126
7.740	5146.126
7.742	4384.126
7.744	3615.126
7.746	3924.126
7.748	5173.126
7.750	6018.126
7.752	7939.126
7.754	10621.126
7.756	12714.126
7.758	14345.126
7.760	14250.126
7.762	12685.126
7.764	11630.126
7.766	10849.126
7.768	8809.126
7.770	6896.126
7.772	6310.126
7.774	4791.126
7.776	3146.126
7.778	2188.126
7.780	939.126
7.782	31.126
7.784	710.126
7.786	1506.126
7.788	2063.126
7.790	2643.126
7.792	4506.126
7.794	7178.126
7.796	7828.126
7.798	7357.126
7.800	6672.126
7.802	5644.126
7.804	6072.126
7.806	6614.126
7.808	6311.126
7.810	4225.126
7.812	1364.126
7.814	-2557.874
7.816	-4373.874
7.818	-3356.874
7.820	-4246.874
7.822	-5574.874
7.824	-6495.874
7.826	-5144.874
7.828	-3415.874
7.830	-2326.874
7.832	-1251.874
7.834	-81.874
7.836	1450.126
7.838	2914.126
7.840	3729.126
7.842	3119.126
7.844	2866.126
7.846	2018.126
7.848	646.126
7.850	-395.874
7.852	-2568.874
7.854	-6196.874
7.856	-7687.874
7.858	-6801.874
7.860	-6537.874
7.862	-6336.874
7.864	-6360.874
7.866	-6583.874
7.868	-6672.874
7.870	-4509.874
7.872	-2250.874
7.874	-814.874
7.876	377.126
7.878	1252.126
7.880	1123.126
7.882	1144.126
7.884	1083.126
7.886	-273.874
7.888	-1890.874
7.890	-3505.874
7.892	-5693.874
7.894	-8698.874
7.896	-7231.874
7.898	-8119.874
7.900	-8868.874
7.902	-9491.874
7.904	-9140.874
7.906	-8412.874
7.908	-8201.874
7.910	-6767.874
7.912	-3530.874
7.914	-1177.874
7.916	73.126
7.918	782.126
7.920	682.126
7.922	327.126
7.924	-486.874
7.926	-1318.874
7.928	-2165.874
7.930	-4295.874
7.932	-6090.874
7.934	-8023.874
7.936	-7608.874
7.938	-8298.874
7.940	-8737.874
7.942	-8323.874
7.944	-8198.874
7.946	-7781.874
7.948	-7015.874
7.950	-5560.874
7.952	-3885.874
7.954	-2265.874
7.956	-1798.874
7.958	-1486.874
7.960	-1576.874
7.962	-1808.874
7.964	-812.874
7.966	33.126
7.968	-953.874
7.970	-2818.874
7.972	-6554.874
7.974	-9066.874
7.976	-8345.874
7.978	-8527.874
7.980	-9535.874
7.982	-9993.874
7.984	-8473.874
7.986	-7266.874
7.988	-7003.874
7.990	-5138.874
7.992	-4121.874
7.994	-2253.874
7.996	148.126
7.998	1553.126
8.000	958.126
8.002	-110.874
8.004	-1065.874
8.006	-2378.874
8.008	-2527.874
8.010	-3059.874
8.012	-5790.874
8.014	-7558.874
8.016	-6289.874
8.018	-7753.874
8.020	-9496.874
8.022	-9782.874
8.024	-9757.874
8.026	-8155.874
8.028	-6300.874
8.030	-4793.874
8.032	-2990.874
8.034	-1201.874
8.036	-917.874
8.038	246.126
8.040	-320.874
8.042	-1674.874
8.044	-1403.874
8.046	-1316.874
8.048	-2157.874
8.050	-3647.874
8.052	-6950.874
8.054	-8409.874
8.056	-7845.874
8.058	-9779.874
8.060	-9534.874
8.062	-8160.874
8.064	-7715.874
8.066	-7258.874
8.068	-6820.874
8.070	-5173.874
8.072	-3939.874
8.074	-2439.874
8.076	-1503.874
8.078	-648.874
8.080	-631.874
8.082	-393.874
8.084	-745.874
8.086	-1467.874
8.088	-2056.874
8.090	-3681.874
8.092	-4630.874
8.094	-6054.874
8.096	-6503.874
8.098	-7777.874
8.100	-8701.874
8.102	-9413.874
8.104	-9698.874
8.106	-7435.874
8.108	-5521.874
8.110	-3768.874
8.112	-2228.874
8.114	-570.874
8.116	313.126
8.118	914.126
8.120	508.126
8.122	-118.874
8.124	-155.874
8.126	-86.874
8.128	-683.874
8.130	-3591.874
8.132	-6640.874
8.134	-6360.874
8.136	-7671.874
8.138	-9552.874
8.140	-10051.874
8.142	-9514.874
8.144	-8656.874
8.146	-7409.874
8.148	-6835.874
8.150	-4534.874
8.152	-2966.874
8.154	-1114.874
8.156	-549.874
8.158	-496.874
8.160	-438.874
8.162	134.126
8.164	-74.874
8.166	-1108.874
8.168	-1908.874
8.170	-4053.874
8.172	-6936.874
8.174	-6476.874
8.176	-6180.874
8.178	-8117.874
8.180	-10376.874
8.182	-9060.874
8.184	-7566.874
8.186	-7021.874
8.188	-6486.874
8.190	-5235.874
8.192	-2227.874
8.194	-713.874
8.196	-421.874
8.198	664.126
8.200	1126.126
8.202	254.126
8.204	-683.874
8.206	-1586.874
8.208	-2264.874
8.210	-5548.874
8.212	-6951.874
8.214	-6761.874
8.216	-6955.874
8.218	-7929.874
8.220	-8464.874
8.222	-8530.874
8.224	-7727.874
8.226	-7311.874
8.228	-7040.874
8.230	-4891.874
8.232	-3013.874
8.234	-1391.874
8.236	-418.874
8.238	111.126
8.240	-119.874
8.242	440.126
8.244	263.126
8.246	-1405.874
8.248	-2214.874
8.250	-3777.874
8.252	-6572.874
8.254	-6871.874
8.256	-6621.874
8.258	-7286.874
8.260	-7113.874
8.262	-7680.874
8.264	-8123.874
8.266	-7096.874
8.268	-5594.874
8.270	-2962.874
8.272	-518.874
8.274	-278.874
8.276	126.126
8.278	2498.126
8.280	3998.126
8.282	3743.126
8.284	1876.126
8.286	632.126
8.288	462.126
8.290	-1700.874
8.292	-3299.874
8.294	-3783.874
8.296	-4798.874
8.298	-6661.874
8.300	-8019.874
8.302	-6845.874
8.304	-5668.874
8.306	-4463.874
8.308	-3016.874
8.310	-1413.874
8.312	632.126
8.314	2449.126
8.316	4020.126
8.318	4234.126
8.320	3754.126
8.322	2981.126
8.324	1776.126
8.326	784.126
8.328	-685.874
8.330	-2550.874
8.332	-1659.874
8.334	-3239.874
8.336	-5060.874
8.338	-7327.874
8.340	-7751.874
8.342	-7529.874
8.344	-6077.874
8.346	-4230.874
8.348	-3083.874
8.350	-3128.874
8.352	-2016.874
8.354	27.126
8.356	1423.126
8.358	1674.126
8.360	1074.126
8.362	-202.874
8.364	-1509.874
8.366	-1890.874
8.368	-2408.874
8.370	-3737.874
8.372	-4415.874
8.374	-7313.874
8.376	-8347.874
8.378	-8731.874
8.380	-9373.874
8.382	-9935.874
8.384	-9703.874
8.386	-8529.874
8.388	-6753.874
8.390	-4606.874
8.392	-3305.874
8.394	-2046.874
8.396	-1203.874
8.398	223.126
8.400	-440.874
8.402	-1417.874
8.404	-1355.874
8.406	-1973.874
8.408	-4113.874
8.410	-6069.874
8.412	-6643.874
8.414	-7801.874
8.416	-8506.874
8.418	-9903.874
8.420	-11407.874
8.422	-12357.874
8.424	-11146.874
8.426	-7162.874
8.428	-4100.874
8.430	-3181.874
8.432	-1813.874
8.434	-797.874
8.436	-727.874
8.438	-815.874
8.440	-332.874
8.442	-81.874
8.444	-820.874
8.446	-1910.874
8.448	-3945.874
8.450	-5139.874
8.452	-5015.874
8.454	-7281.874
8.456	-9333.874
8.458	-10326.874
8.460	-11357.874
8.462	-11845.874
8.464	-9710.874
8.466	-7616.874
8.468	-6900.874
8.470	-5396.874
8.472	-3606.874
8.474	-2408.874
8.476	-722.874
8.478	457.126
8.480	-61.874
8.482	-535.874
8.484	-283.874
8.486	-1213.874
8.488	-3818.874
8.490	-5091.874
8.492	-4334.874
8.494	-4217.874
8.496	-3154.874
8.498	-1018.874
8.500	869.126
8.502	2715.126
8.504	4548.126
8.506	7862.126
8.508	12791.126
8.510	16979.126
8.512	20578.126
8.514	24594.126
8.516	28379.126
8.518	31362.126
8.520	34073.126
8.522	36428.126
8.524	38402.126
8.526	39076.126
8.528	38975.126
8.530	41201.126
8.532	40354.126
8.534	36409.126
8.536	30784.126
8.538	25958.126
8.540	23396.126
8.542	19018.126
8.544	13806.126
8.546	9917.126
8.548	7159.126
8.550	4902.126
8.552	4493.126
8.554	4809.126
8.556	5240.126
8.558	6528.126
8.560	6577.126
8.562	5214.126
8.564	2449.126
8.566	-1465.874
8.568	-3714.874
8.570	-3605.874
8.572	-5475.874
8.574	-6978.874
8.576	-7818.874
8.578	-8538.874
8.580	-9013.874
8.582	-10142.874
8.584	-10775.874
8.586	-10521.874
8.588	-10313.874
8.590	-8555.874
8.592	-5991.874
8.594	-4081.874
8.596	-2866.874
8.598	-1758.874
8.600	-1682.874
8.602	-2208.874
8.604	-3083.874
8.606	-4911.874
8.608	-6293.874
8.610	-5613.874
8.612	-7454.874
8.614	-8905.874
8.616	-9383.874
8.618	-11140.874
8.620	-10581.874
8.622	-9015.874
8.624	-8008.874
8.626	-6973.874
8.628	-6195.874
8.630	-4501.874
8.632	-3320.874
8.634	-2050.874
8.636	-426.874
8.638	371.126
8.640	48.126
8.642	549.126
8.644	195.126
8.646	-3296.874
8.648	-4830.874
8.650	-3461.874
8.652	-5342.874
8.654	-6975.874
8.656	-7804.874
8.658	-8868.874
8.660	-9500.874
8.662	-9598.874
8.664	-8542.874
8.666	-7524.874
8.668	-6506.874
8.670	-4106.874
8.672	-1985.874
8.674	-550.874
8.676	-188.874
8.678	729.126
8.680	853.126
8.682	430.126
8.684	-1051.874
8.686	-3688.874
8.688	-4540.874
8.690	-3553.874
8.692	-4643.874
8.694	-6216.874
8.696	-6573.874
8.698	-6690.874
8.700	-7985.874
8.702	-8590.874
8.704	-8062.874
8.706	-6661.874
8.708	-5230.874
8.710	-3778.874
8.712	-2054.874
8.714	-533.874
8.716	826.126
8.718	1958.126
8.720	2430.126
8.722	1922.126
8.724	-136.874
8.726	-2157.874
8.728	-1325.874
8.730	-2862.874
8.732	-5411.874
8.734	-6783.874
8.736	-7513.874
8.738	-7645.874
8.740	-7587.874
8.742	-8060.874
8.744	-7539.874
8.746	-6595.874
8.748	-5496.874
8.750	-4288.874
8.752	-2160.874
8.754	-348.874
8.756	54.126
8.758	673.126
8.760	934.126
8.762	733.126
8.764	1051.126
8.766	-87.874
8.768	-688.874
8.770	-2421.874
8.772	-4763.874
8.774	-6723.874
8.776	-7704.874
8.778	-7196.874
8.780	-6710.874
8.782	-6718.874
8.784	-5994.874
8.786	-5010.874
8.788	-3675.874
8.790	-1318.874
8.792	1562.126
8.794	2266.126
8.796	2216.126
8.798	4003.126
8.800	3595.126
8.802	2509.126
8.804	800.126
8.806	621.126
8.808	589.126
8.810	-500.874
8.812	-1456.874
8.814	-2721.874
8.816	-4485.874
8.818	-5677.874
8.820	-5186.874
8.822	-4820.874
8.824	-3513.874
8.826	-2640.874
8.828	-1633.874
8.830	-855.874
8.832	956.126
8.834	2195.126
8.836	3574.126
8.838	4054.126
8.840	4978.126
8.842	6845.126
8.844	4231.126
8.846	1503.126
8.848	1922.126
8.850	511.126
8.852	-1759.874
8.854	-2711.874
8.856	-4096.874
8.858	-4275.874
8.860	-3065.874
8.862	-2861.874
8.864	-2893.874
8.866	-2013.874
8.868	303.126
8.870	2126.126
8.872	4368.126
8.874	5716.126
8.876	6563.126
8.878	7198.126
8.880	7562.126
8.882	7494.126
8.884	4642.126
8.886	3249.126
8.888	4591.126
8.890	3654.126
8.892	981.126
8.894	-43.874
8.896	-892.874
8.898	-1545.874
8.900	-1968.874
8.902	-1401.874
8.904	124.126
8.906	1147.126
8.908	2432.126
8.910	4805.126
8.912	7258.126
8.914	8566.126
8.916	9013.126
8.918	9386.126
8.920	10068.126
8.922	9800.126
8.924	7462.126
8.926	5987.126
8.928	5608.126
8.930	4701.126
8.932	3434.126
8.934	2956.126
8.936	2573.126
8.938	2162.126
8.940	2480.126
8.942	2434.126
8.944	3373.126
8.946	4445.126
8.948	6457.126
8.950	9155.126
8.952	11045.126
8.954	11945.126
8.956	12798.126
8.958	12058.126
8.960	10973.126
8.962	10572.126
8.964	8933.126
8.966	11417.126
8.968	10673.126
8.970	7930.126
8.972	5823.126
8.974	5348.126
8.976	4428.126
8.978	4144.126
8.980	4471.126
8.982	4363.126
8.984	5114.126
8.986	6101.126
8.988	7871.126
8.990	9397.126
8.992	11237.126
8.994	13101.126
8.996	14033.126
8.998	13331.126
9.000	13009.126
9.002	11533.126
9.004	9817.126
9.006	10597.126
9.008	10197.126
9.010	8273.126
9.012	5786.126
9.014	4200.126
9.016	3569.126
9.018	2166.126
9.020	1174.126
9.022	1665.126
9.024	2586.126
9.026	3836.126
9.028	4982.126
9.030	5843.126
9.032	7408.126
9.034	7466.126
9.036	7949.126
9.038	8451.126
9.040	8425.126
9.042	6016.126
9.044	5243.126
9.046	6185.126
9.048	4744.126
9.050	2613.126
9.052	1301.126
9.054	-415.874
9.056	-1926.874
9.058	-3071.874
9.060	-3506.874
9.062	-2958.874
9.064	-2160.874
9.066	-2455.874
9.068	-1720.874
9.070	79.126
9.072	1793.126
9.074	3239.126
9.076	3856.126
9.078	4161.126
9.080	3400.126
9.082	1494.126
9.084	763.126
9.086	1365.126
9.088	-258.874
9.090	-1764.874
9.092	-3741.874
9.094	-5027.874
9.096	-6022.874
9.098	-7218.874
9.100	-8166.874
9.102	-8223.874
9.104	-6491.874
9.106	-4940.874
9.108	-3781.874
9.110	-2723.874
9.112	-968.874
9.114	376.126
9.116	1410.126
9.118	1134.126
9.120	623.126
9.122	-988.874
9.124	-2087.874
9.126	-1003.874
9.128	-1876.874
9.130	-4453.874
9.132	-7336.874
9.134	-7455.874
9.136	-8423.874
9.138	-9263.874
9.140	-9933.874
9.142	-9438.874
9.144	-7420.874
9.146	-6317.874
9.148	-5246.874
9.150	-3280.874
9.152	-1776.874
9.154	-2074.874
9.156	-1392.874
9.158	807.126
9.160	834.126
9.162	-1651.874
9.164	-1515.874
9.166	-1455.874
9.168	-3135.874
9.170	-5011.874
9.172	-6635.874
9.174	-7906.874
9.176	-9720.874
9.178	-11166.874
9.180	-10251.874
9.182	-8775.874
9.184	-7481.874
9.186	-5879.874
9.188	-5013.874
9.190	-4396.874
9.192	-3334.874
9.194	-3195.874
9.196	-1905.874
9.198	-270.874
9.200	-1082.874
9.202	-1544.874
9.204	-805.874
9.206	-1496.874
9.208	-2941.874
9.210	-4818.874
9.212	-7771.874
9.214	-9021.874
9.216	-9530.874
9.218	-9041.874
9.220	-8927.874
9.222	-9462.874
9.224	-9240.874
9.226	-8080.874
9.228	-5513.874
9.230	-3770.874
9.232	-2842.874
9.234	-2150.874
9.236	-328.874
9.238	132.126
9.240	-1638.874
9.242	-2760.874
9.244	-1606.874
9.246	-1297.874
9.248	-3140.874
9.250	-5541.874
9.252	-7847.874
9.254	-9060.874
9.256	-9696.874
9.258	-9282.874
9.260	-9380.874
9.262	-9055.874
9.264	-8342.874
9.266	-7250.874
9.268	-5088.874
9.270	-3473.874
9.272	-2400.874
9.274	-1430.874
9.276	-480.874
9.278	56.126
9.280	-1273.874
9.282	-2260.874
9.284	-1818.874
9.286	-2508.874
9.288	-3853.874
9.290	-5368.874
9.292	-7325.874
9.294	-8371.874
9.296	-8949.874
9.298	-10128.874
9.300	-10526.874
9.302	-9648.874
9.304	-8520.874
9.306	-7350.874
9.308	-5700.874
9.310	-4933.874
9.312	-3445.874
9.314	-1153.874
9.316	239.126
9.318	-191.874
9.320	-1214.874
9.322	-1266.874
9.324	-656.874
9.326	-1751.874
9.328	-3853.874
9.330	-5526.874
9.332	-7186.874
9.334	-7731.874
9.336	-8655.874
9.338	-9992.874
9.340	-10678.874
9.342	-9415.874
9.344	-7421.874
9.346	-5918.874
9.348	-3500.874
9.350	-2761.874
9.352	-1387.874
9.354	-256.874
9.356	169.126
9.358	-785.874
9.360	-2003.874
9.362	-1302.874
9.364	-2205.874
9.366	-3077.874
9.368	-2186.874
9.370	-3184.874
9.372	-5989.874
9.374	-7773.874
9.376	-9677.874
9.378	-10157.874
9.380	-9528.874
9.382	-9309.874
9.384	-8077.874
9.386	-6585.874
9.388	-4531.874
9.390	-2948.874
9.392	-1677.874
9.394	-444.874
9.396	344.126
9.398	-529.874
9.400	-1209.874
9.402	-762.874
9.404	-1688.874
9.406	-2578.874
9.408	-4320.874
9.410	-5893.874
9.412	-7361.874
9.414	-7818.874
9.416	-9082.874
9.418	-9549.874
9.420	-9178.874
9.422	-8449.874
9.424	-8162.874
9.426	-6835.874
9.428	-5060.874
9.430	-3476.874
9.432	-2403.874
9.434	-1118.874
9.436	-87.874
9.438	-1178.874
9.440	-1517.874
9.442	-455.874
9.444	-1508.874
9.446	-2011.874
9.448	-2572.874
9.450	-4606.874
9.452	-6976.874
9.454	-9045.874
9.456	-11006.874
9.458	-11459.874
9.460	-10983.874
9.462	-8661.874
9.464	-6611.874
9.466	-5765.874
9.468	-4672.874
9.470	-3840.874
9.472	-2851.874
9.474	-2030.874
9.476	-1887.874
9.478	-4375.874
9.480	-4153.874
9.482	-1083.874
9.484	742.126
9.486	736.126
9.488	-1144.874
9.490	-4080.874
9.492	-6984.874
9.494	-7846.874
9.496	-7261.874
9.498	-7487.874
9.500	-9559.874
9.502	-9250.874
9.504	-5593.874
9.506	-3436.874
9.508	-2720.874
9.510	-1058.874
9.512	167.126
9.514	1374.126
9.516	1977.126
9.518	627.126
9.520	1134.126
9.522	2695.126
9.524	1513.126
9.526	-215.874
9.528	-1929.874
9.530	-3530.874
9.532	-4582.874
9.534	-4813.874
9.536	-5445.874
9.538	-6205.874
9.540	-6986.874
9.542	-6401.874
9.544	-4906.874
9.546	-3297.874
9.548	-1600.874
9.550	96.126
9.552	1123.126
9.554	1664.126
9.556	2956.126
9.558	2284.126
9.560	1497.126
9.562	2295.126
9.564	2093.126
9.566	537.126
9.568	-1186.874
9.570	-2669.874
9.572	-4653.874
9.574	-6215.874
9.576	-7245.874
9.578	-7211.874
9.580	-7336.874
9.582	-6867.874
9.584	-5412.874
9.586	-4658.874
9.588	-4091.874
9.590	-1956.874
9.592	-249.874
9.594	640.126
9.596	414.126
9.598	-855.874
9.600	471.126
9.602	-59.874
9.604	-993.874
9.606	-2356.874
9.608	-4530.874
9.610	-6417.874
9.612	-7641.874
9.614	-8622.874
9.616	-9548.874
9.618	-10880.874
9.620	-11760.874
9.622	-10733.874
9.624	-8599.874
9.626	-7060.874
9.628	-5341.874
9.630	-3530.874
9.632	-1601.874
9.634	-1211.874
9.636	-2164.874
9.638	-2383.874
9.640	-486.874
9.642	-1905.874
9.644	-3534.874
9.646	-3438.874
9.648	-4773.874
9.650	-7523.874
9.652	-9331.874
9.654	-9931.874
9.656	-10748.874
9.658	-10854.874
9.660	-10866.874
9.662	-9690.874
9.664	-8067.874
9.666	-6602.874
9.668	-5603.874
9.670	-3727.874
9.672	-2555.874
9.674	-2473.874
9.676	-2966.874
9.678	-2793.874
9.680	-165.874
9.682	-241.874
9.684	-2808.874
9.686	-4860.874
9.688	-5236.874
9.690	-6991.874
9.692	-8614.874
9.694	-9228.874
9.696	-10154.874
9.698	-10513.874
9.700	-10803.874
9.702	-9791.874
9.704	-8158.874
9.706	-7743.874
9.708	-6063.874
9.710	-4418.874
9.712	-1512.874
9.714	259.126
9.716	-1596.874
9.718	-2275.874
9.720	-1186.874
9.722	-1782.874
9.724	-2176.874
9.726	-3097.874
9.728	-4861.874
9.730	-5153.874
9.732	-3424.874
9.734	-613.874
9.736	501.126
9.738	991.126
9.740	3288.126
9.742	7683.126
9.744	11996.126
9.746	15068.126
9.748	17675.126
9.750	21946.126
9.752	26532.126
9.754	31491.126
9.756	34798.126
9.758	36606.126
9.760	40001.126
9.762	40795.126
9.764	40575.126
9.766	40364.126
9.768	40289.126
9.770	38178.126
9.772	33082.126
9.774	27768.126
9.776	23022.126
9.778	18491.126
9.780	14510.126
9.782	10915.126
9.784	6938.126
9.786	3837.126
9.788	2674.126
9.790	2819.126
9.792	4331.126
9.794	4780.126
9.796	3819.126
9.798	5618.126
9.800	5544.126
9.802	3118.126
9.804	-302.874
9.806	-3885.874
9.808	-4885.874
9.810	-5875.874
9.812	-7592.874
9.814	-9108.874
9.816	-10385.874
9.818	-11316.874
9.820	-12038.874
9.822	-11940.874
9.824	-11387.874
9.826	-10400.874
9.828	-8676.874
9.830	-6498.874
9.832	-5560.874
9.834	-5236.874
9.836	-4973.874
9.838	-2973.874
9.840	-2820.874
9.842	-4016.874
9.844	-5418.874
9.846	-7023.874
9.848	-7813.874
9.850	-8511.874
9.852	-8576.874
9.854	-8847.874
9.856	-9954.874
9.858	-11153.874
9.860	-10466.874
9.862	-8259.874
9.864	-6516.874
9.866	-6036.874
9.868	-5388.874
9.870	-3535.874
9.872	-2384.874
9.874	-3546.874
9.876	-3190.874
9.878	-338.874
9.880	-206.874
9.882	-1470.874
9.884	-1685.874
9.886	-3391.874
9.888	-5856.874
9.890	-7203.874
9.892	-8261.874
9.894	-9448.874
9.896	-9858.874
9.898	-9472.874
9.900	-9018.874
9.902	-8182.874
9.904	-7220.874
9.906	-5360.874
9.908	-3566.874
9.910	-1693.874
9.912	-925.874
9.914	-1660.874
9.916	-960.874
9.918	569.126
9.920	904.126
9.922	11.126
9.924	-1137.874
9.926	-2904.874
9.928	-4781.874
9.930	-6346.874
9.932	-6814.874
9.934	-7313.874
9.936	-8158.874
9.938	-9283.874
9.940	-9611.874
9.942	-7956.874
9.944	-6309.874
9.946	-4576.874
9.948	-2817.874
9.950	-1475.874
9.952	-923.874
9.954	-2280.874
9.956	-1480.874
9.958	740.126
9.960	286.126
9.962	-1301.874
9.964	-1810.874
9.966	-2433.874
9.968	-2946.874
9.970	-3767.874
9.972	-5802.874
9.974	-7885.874
9.976	-8465.874
9.978	-8706.874
9.980	-8573.874
9.982	-7543.874
9.984	-6668.874
9.986	-5596.874
9.988	-3383.874
9.990	-768.874
9.992	-628.874
9.994	-480.874
9.996	1752.126
9.998	2563.126
10.000	2182.126
10.002	1224.126
10.004	-381.874
10.006	-2045.874
10.008	-2561.874
10.010	-3702.874
10.012	-5030.874
10.014	-6458.874
10.016	-6790.874
10.018	-7213.874
10.020	-7523.874
10.022	-7416.874
10.024	-5780.874
10.026	-3699.874
10.028	-1019.874
10.030	1485.126
10.032	2280.126
10.034	2185.126
10.036	4097.126
10.038	4354.126
10.040	3146.126
10.042	1483.126
10.044	548.126
10.046	-920.874
10.048	-2418.874
10.050	-4145.874
10.052	-5243.874
10.054	-5746.874
10.056	-5731.874
10.058	-5036.874
10.060	-4699.874
10.062	-4700.874
10.064	-4449.874
10.066	-3383.874
10.068	-533.874
10.070	2947.126
10.072	3484.126
10.074	3409.126
10.076	4452.126
10.078	4038.126
10.080	3653.126
10.082	2768.126
10.084	1786.126
10.086	998.126
10.088	112.126
10.090	-965.874
10.092	-2035.874
10.094	-3561.874
10.096	-4512.874
10.098	-4218.874
10.100	-3670.874
10.102	-2958.874
10.104	-1863.874
10.106	-596.874
10.108	1731.126
10.110	4609.126
10.112	4774.126
10.114	6256.126
10.116	8161.126
10.118	7606.126
10.120	7022.126
10.122	5870.126
10.124	5251.126
10.126	3743.126
10.128	2437.126
10.130	955.126
10.132	-491.874
10.134	-1347.874
10.136	-1622.874
10.138	-1527.874
10.140	-481.874
10.142	639.126
10.144	2059.126
10.146	3939.126
10.148	5858.126
10.150	7457.126
10.152	7136.126
10.154	7317.126
10.156	9620.126
10.158	10205.126
10.160	10160.126
10.162	9007.126
10.164	7443.126
10.166	6683.126
10.168	5881.126
10.170	4871.126
10.172	3866.126
10.174	2777.126
10.176	1720.126
10.178	1370.126
10.180	2148.126
10.182	3583.126
10.184	4794.126
10.186	6247.126
10.188	8341.126
10.190	8688.126
10.192	8568.126
10.194	11431.126
10.196	12694.126
10.198	13534.126
10.200	13353.126
10.202	10683.126
10.204	10416.126
10.206	10306.126
10.208	7256.126
10.210	4689.126
10.212	4929.126
10.214	4122.126
10.216	3831.126
10.218	3828.126
10.220	4151.126
10.222	5576.126
10.224	7134.126
10.226	8830.126
10.228	9846.126
10.230	10066.126
10.232	9777.126
10.234	13042.126
10.236	13564.126
10.238	12401.126
10.240	11621.126
10.242	10132.126
10.244	9311.126
10.246	8504.126
10.248	7483.126
10.250	6576.126
10.252	5215.126
10.254	2991.126
10.256	1284.126
10.258	408.126
10.260	613.126
10.262	1842.126
10.264	2378.126
10.266	3584.126
10.268	5984.126
10.270	7668.126
10.272	9498.126
10.274	10764.126
10.276	9662.126
10.278	8682.126
10.280	7353.126
10.282	5668.126
10.284	4594.126
10.286	3074.126
10.288	1346.126
10.290	-308.874
10.292	-975.874
10.294	-2152.874
10.296	-3498.874
10.298	-3898.874
10.300	-3381.874
10.302	-2446.874
10.304	-1700.874
10.306	-1153.874
10.308	-426.874
10.310	863.126
10.312	1448.126
10.314	3483.126
10.316	4039.126
10.318	3802.126
10.320	2785.126
10.322	973.126
10.324	-692.874
10.326	-2029.874
10.328	-3303.874
10.330	-5401.874
10.332	-6470.874
10.334	-7606.874
10.336	-8953.874
10.338	-9465.874
10.340	-8747.874
10.342	-6849.874
10.344	-6078.874
10.346	-5016.874
10.348	-3413.874
10.350	-1607.874
10.352	-707.874
10.354	833.126
10.356	660.126
10.358	-1243.874
10.360	-1869.874
10.362	-3090.874
10.364	-3716.874
10.366	-4281.874
10.368	-5418.874
10.370	-6835.874
10.372	-7533.874
10.374	-8860.874
10.376	-10044.874
10.378	-10928.874
10.380	-10681.874
10.382	-9239.874
10.384	-7745.874
10.386	-5595.874
10.388	-2955.874
10.390	-1488.874
10.392	-663.874
10.394	993.126
10.396	546.126
10.398	-443.874
10.400	-1521.874
10.402	-1478.874
10.404	-2085.874
10.406	-3828.874
10.408	-5375.874
10.410	-7963.874
10.412	-9208.874
10.414	-9986.874
10.416	-10455.874
10.418	-10276.874
10.420	-10215.874
10.422	-9237.874
10.424	-7093.874
10.426	-4498.874
10.428	-2840.874
10.430	-1745.874
10.432	212.126
10.434	268.126
10.436	26.126
10.438	-435.874
10.440	-1051.874
10.442	-1790.874
10.444	-2920.874
10.446	-4513.874
10.448	-6066.874
10.450	-8151.874
10.452	-9178.874
10.454	-9815.874
10.456	-10527.874
10.458	-10433.874
10.460	-10323.874
10.462	-9020.874
10.464	-8031.874
10.466	-5891.874
10.468	-4625.874
10.470	-3835.874
10.472	-489.874
10.474	484.126
10.476	-11.874
10.478	-551.874
10.480	-820.874
10.482	-1777.874
10.484	-2668.874
10.486	-3894.874
10.488	-5818.874
10.490	-7359.874
10.492	-8952.874
10.494	-10091.874
10.496	-10387.874
10.498	-10517.874
10.500	-9891.874
10.502	-8555.874
10.504	-7844.874
10.506	-6220.874
10.508	-5005.874
10.510	-3327.874
10.512	-273.874
10.514	263.126
10.516	-1178.874
10.518	-423.874
10.520	-385.874
10.522	-1825.874
10.524	-2860.874
10.526	-4876.874
10.528	-7376.874
10.530	-7955.874
10.532	-7774.874
10.534	-9027.874
10.536	-9129.874
10.538	-9195.874
10.540	-8481.874
10.542	-6859.874
10.544	-6367.874
10.546	-5765.874
10.548	-5203.874
10.550	-3435.874
10.552	-1000.874
10.554	-287.874
10.556	-863.874
10.558	-1093.874
10.560	-1536.874
10.562	-2360.874
10.564	-3398.874
10.566	-5250.874
10.568	-6631.874
10.570	-8241.874
10.572	-9501.874
10.574	-10055.874
10.576	-10360.874
10.578	-9795.874
10.580	-8295.874
10.582	-6509.874
10.584	-6073.874
10.586	-4918.874
10.588	-4630.874
10.590	-4783.874
10.592	-1481.874
10.594	1091.126
10.596	1252.126
10.598	537.126
10.600	-953.874
10.602	-1271.874
10.604	-2051.874
10.606	-3773.874
10.608	-5889.874
10.610	-7695.874
10.612	-8476.874
10.614	-9570.874
10.616	-10365.874
10.618	-10440.874
10.620	-8635.874
10.622	-6986.874
10.624	-6388.874
10.626	-6031.874
10.628	-6036.874
10.630	-2321.874
10.632	-236.874
10.634	145.126
10.636	1225.126
10.638	1169.126
10.640	539.126
10.642	-600.874
10.644	-1994.874
10.646	-4953.874
10.648	-6938.874
10.650	-6788.874
10.652	-6924.874
10.654	-8740.874
10.656	-9967.874
10.658	-9715.874
10.660	-9090.874
10.662	-8525.874
10.664	-7230.874
10.666	-6196.874
10.668	-4191.874
10.670	-1442.874
10.672	-702.874
10.674	-232.874
10.676	167.126
10.678	870.126
10.680	557.126
10.682	-2516.874
10.684	-4118.874
10.686	-4688.874
10.688	-5220.874
10.690	-6358.874
10.692	-8699.874
10.694	-10643.874
10.696	-10335.874
10.698	-10036.874
10.700	-8109.874
10.702	-6722.874
10.704	-6075.874
10.706	-5205.874
10.708	-3471.874
10.710	188.126
10.712	1551.126
10.714	1769.126
10.716	1321.126
10.718	1056.126
10.720	270.126
10.722	-798.874
10.724	-1890.874
10.726	-3471.874
10.728	-4946.874
10.730	-6384.874
10.732	-7885.874
10.734	-7666.874
10.736	-7171.874
10.738	-7083.874
10.740	-6504.874
10.742	-5345.874
10.744	-4267.874
10.746	-3981.874
10.748	-2034.874
10.750	1350.126
10.752	1959.126
10.754	1278.126
10.756	1289.126
10.758	1608.126
10.760	1258.126
10.762	441.126
10.764	-360.874
10.766	-1329.874
10.768	-2857.874
10.770	-4436.874
10.772	-5697.874
10.774	-7248.874
10.776	-7605.874
10.778	-7150.874
10.780	-5553.874
10.782	-3535.874
10.784	-2410.874
10.786	-2850.874
10.788	-871.874
10.790	2106.126
10.792	2589.126
10.794	3036.126
10.796	3372.126
10.798	2939.126
10.800	2114.126
10.802	695.126
10.804	-717.874
10.806	-2279.874
10.808	-4458.874
10.810	-5510.874
10.812	-5822.874
10.814	-7477.874
10.816	-7951.874
10.818	-7788.874
10.820	-7125.874
10.822	-6796.874
10.824	-7673.874
10.826	-7000.874
10.828	-1618.874
10.830	588.126
10.832	1046.126
10.834	1599.126
10.836	2229.126
10.838	1313.126
10.840	-856.874
10.842	-1944.874
10.844	-2966.874
10.846	-4771.874
10.848	-6808.874
10.850	-8421.874
10.852	-9772.874
10.854	-9942.874
10.856	-9552.874
10.858	-10368.874
10.860	-9905.874
10.862	-9114.874
10.864	-8643.874
10.866	-7471.874
10.868	-2944.874
10.870	-1551.874
10.872	-1017.874
10.874	-56.874
10.876	276.126
10.878	-384.874
10.880	-1561.874
10.882	-2628.874
10.884	-4035.874
10.886	-5174.874
10.888	-7504.874
10.890	-9244.874
10.892	-9926.874
10.894	-9787.874
10.896	-8986.874
10.898	-9642.874
10.900	-9897.874
10.902	-9303.874
10.904	-8597.874
10.906	-6841.874
10.908	-2513.874
10.910	-172.874
10.912	354.126
10.914	-353.874
10.916	-480.874
10.918	-915.874
10.920	-2281.874
10.922	-3723.874
10.924	-5449.874
10.926	-6345.874
10.928	-7060.874
10.930	-7741.874
10.932	-8565.874
10.934	-9768.874
10.936	-10227.874
10.938	-11139.874
10.940	-10508.874
10.942	-7986.874
10.944	-6598.874
10.946	-5589.874
10.948	-2605.874
10.950	-1313.874
10.952	-514.874
10.954	309.126
10.956	979.126
10.958	2618.126
10.960	4249.126
10.962	5180.126
10.964	5483.126
10.966	5756.126
10.968	5696.126
10.970	6207.126
10.972	7639.126
10.974	9749.126
10.976	12579.126
10.978	14792.126
10.980	17879.126
10.982	21927.126
10.984	24929.126
10.986	29574.126
10.988	35566.126
10.990	38735.126
10.992	41829.126
10.994	44654.126
10.996	45874.126
10.998	44538.126
11.000	39773.126
11.002	34030.126
11.004	29463.126
11.006	24503.126
11.008	19504.126
11.010	13909.126
11.012	8019.126
11.014	2701.126
11.016	-881.874
11.018	-2508.874
11.020	-1891.874
11.022	-1538.874
11.024	-885.874
11.026	309.126
11.028	3478.126
11.030	3738.126
11.032	2223.126
11.034	1703.126
11.036	597.126
11.038	-788.874
11.040	-627.874
11.042	-1466.874
11.044	-4527.874
11.046	-6595.874
11.048	-7746.874
11.050	-8606.874
11.052	-10365.874
11.054	-12020.874
11.056	-12907.874
11.058	-13505.874
11.060	-12924.874
11.062	-12006.874
11.064	-10286.874
11.066	-6118.874
11.068	-3400.874
11.070	-2386.874
11.072	-1468.874
11.074	-1391.874
11.076	-1393.874
11.078	-1426.874
11.080	-2413.874
11.082	-3126.874
11.084	-3930.874
11.086	-5456.874
11.088	-7452.874
11.090	-8428.874
11.092	-8366.874
11.094	-8734.874
11.096	-9924.874
11.098	-9909.874
11.100	-8643.874
11.102	-9948.874
11.104	-8527.874
11.106	-4171.874
11.108	-2676.874
11.110	-2720.874
11.112	-1608.874
11.114	-830.874
11.116	-948.874
11.118	-1980.874
11.120	-3060.874
11.122	-3430.874
11.124	-3588.874
11.126	-4863.874
11.128	-6144.874
11.130	-6707.874
11.132	-7821.874
11.134	-8042.874
11.136	-7772.874
11.138	-6951.874
11.140	-6295.874
11.142	-7308.874
11.144	-6980.874
11.146	-4306.874
11.148	-2563.874
11.150	-2236.874
11.152	-975.874
11.154	1286.126
11.156	1531.126
11.158	359.126
11.160	-6.874
11.162	-373.874
11.164	-2831.874
11.166	-5081.874
11.168	-6331.874
11.170	-6646.874
11.172	-7716.874
11.174	-9352.874
11.176	-9760.874
11.178	-8608.874
11.180	-6443.874
11.182	-6163.874
11.184	-4958.874
11.186	-2158.874
11.188	158.126
11.190	483.126
11.192	594.126
11.194	1664.126
11.196	1888.126
11.198	2035.126
11.200	703.126
11.202	-636.874
11.204	-2180.874
11.206	-4188.874
11.208	-5953.874
11.210	-6948.874
11.212	-7126.874
11.214	-6975.874
11.216	-7382.874
11.218	-7551.874
11.220	-6653.874
11.222	-6203.874
11.224	-4531.874
11.226	-1623.874
11.228	443.126
11.230	1263.126
11.232	2088.126
11.234	2639.126
11.236	3235.126
11.238	3366.126
11.240	1909.126
11.242	703.126
11.244	-970.874
11.246	-3917.874
11.248	-6454.874
11.250	-5737.874
11.252	-5770.874
11.254	-7221.874
11.256	-7038.874
11.258	-6994.874
11.260	-6351.874
11.262	-5950.874
11.264	-2361.874
11.266	-830.874
11.268	539.126
11.270	1543.126
11.272	2039.126
11.274	3319.126
11.276	3875.126
11.278	3681.126
11.280	3062.126
11.282	1667.126
11.284	-473.874
11.286	-2125.874
11.288	-3683.874
11.290	-4107.874
11.292	-5325.874
11.294	-6726.874
11.296	-6365.874
11.298	-5858.874
11.300	-6635.874
11.302	-4117.874
11.304	988.126
11.306	992.126
11.308	1456.126
11.310	3178.126
11.312	4798.126
11.314	5653.126
11.316	5752.126
11.318	5186.126
11.320	4858.126
11.322	4689.126
11.324	2686.126
11.326	-626.874
11.328	-2470.874
11.330	-2578.874
11.332	-3354.874
11.334	-4083.874
11.336	-3512.874
11.338	-3180.874
11.340	-2380.874
11.342	-1339.874
11.344	1554.126
11.346	3934.126
11.348	4829.126
11.350	5806.126
11.352	7323.126
11.354	8533.126
11.356	8459.126
11.358	7661.126
11.360	6989.126
11.362	6229.126
11.364	4064.126
11.366	2203.126
11.368	1525.126
11.370	1830.126
11.372	993.126
11.374	113.126
11.376	1021.126
11.378	1654.126
11.380	1691.126
11.382	1763.126
11.384	4672.126
11.386	6988.126
11.388	8407.126
11.390	8642.126
11.392	10106.126
11.394	12596.126
11.396	12351.126
11.398	11071.126
11.400	9674.126
11.402	8583.126
11.404	7229.126
11.406	6348.126
11.408	5718.126
11.410	4911.126
11.412	3553.126
11.414	2269.126
11.416	1731.126
11.418	2201.126
11.420	2864.126
11.422	5351.126
11.424	7857.126
11.426	8001.126
11.428	9646.126
11.430	11236.126
11.432	12748.126
11.434	14112.126
11.436	13695.126
11.438	12274.126
11.440	11528.126
11.442	10722.126
11.444	9681.126
11.446	8492.126
11.448	6392.126
11.450	5516.126
11.452	5108.126
11.454	4759.126
11.456	4754.126
11.458	4336.126
11.460	3584.126
11.462	6458.126
11.464	8166.126
11.466	9543.126
11.468	11101.126
11.470	11969.126
11.472	12400.126
11.474	12561.126
11.476	12182.126
11.478	11771.126
11.480	10974.126
11.482	9854.126
11.484	7721.126
11.486	5291.126
11.488	3680.126
11.490	2101.126
11.492	929.126
11.494	-277.874
11.496	-623.874
11.498	-797.874
11.500	-183.874
11.502	1371.126
11.504	2940.126
11.506	4134.126
11.508	5172.126
11.510	7617.126
11.512	9216.126
11.514	8143.126
11.516	6921.126
11.518	6369.126
11.520	4424.126
11.522	2267.126
11.524	1716.126
11.526	1197.126
11.528	-698.874
11.530	-2647.874
11.532	-4621.874
11.534	-4791.874
11.536	-4522.874
11.538	-5338.874
11.540	-4193.874
11.542	-1863.874
11.544	-1697.874
11.546	-774.874
11.548	184.126
11.550	763.126
11.552	2693.126
11.554	3453.126
11.556	2668.126
11.558	2236.126
11.560	1903.126
11.562	803.126
11.564	-1510.874
11.566	-3815.874
11.568	-5447.874
11.570	-6852.874
11.572	-7251.874
11.574	-7431.874
11.576	-8922.874
11.578	-11018.874
11.580	-9969.874
11.582	-5811.874
11.584	-3639.874
11.586	-1983.874
11.588	-15.874
11.590	753.126
11.592	999.126
11.594	34.126
11.596	-630.874
11.598	-608.874
11.600	-963.874
11.602	-1200.874
11.604	-2521.874
11.606	-6038.874
11.608	-8473.874
11.610	-8878.874
11.612	-9768.874
11.614	-10605.874
11.616	-10094.874
11.618	-9604.874
11.620	-8291.874
11.622	-5384.874
11.624	-4524.874
11.626	-3380.874
11.628	-1116.874
11.630	-173.874
11.632	-557.874
11.634	-1194.874
11.636	-91.874
11.638	1164.126
11.640	-341.874
11.642	-2279.874
11.644	-3870.874
11.646	-5516.874
11.648	-7200.874
11.650	-8126.874
11.652	-9465.874
11.654	-10344.874
11.656	-10862.874
11.658	-11742.874
11.660	-8720.874
11.662	-6539.874
11.664	-5201.874
11.666	-3611.874
11.668	-1768.874
11.670	-387.874
11.672	92.126
11.674	-540.874
11.676	-1145.874
11.678	-758.874
11.680	-1728.874
11.682	-3486.874
11.684	-5448.874
11.686	-6073.874
11.688	-6534.874
11.690	-8155.874
11.692	-10658.874
11.694	-12078.874
11.696	-12308.874
11.698	-11284.874
11.700	-7961.874
11.702	-5932.874
11.704	-4917.874
11.706	-4508.874
11.708	-2864.874
11.710	-1310.874
11.712	203.126
11.714	1051.126
11.716	1104.126
11.718	-360.874
11.720	-1515.874
11.722	-2411.874
11.724	-4449.874
11.726	-5583.874
11.728	-6162.874
11.730	-6938.874
11.732	-9216.874
11.734	-10568.874
11.736	-11649.874
11.738	-11238.874
11.740	-7851.874
11.742	-6033.874
11.744	-4620.874
11.746	-3145.874
11.748	-1786.874
11.750	-297.874
11.752	311.126
11.754	-407.874
11.756	-561.874
11.758	-724.874
11.760	-2201.874
11.762	-3660.874
11.764	-5798.874
11.766	-7578.874
11.768	-8103.874
11.770	-8608.874
11.772	-8928.874
11.774	-8140.874
11.776	-9201.874
11.778	-10291.874
11.780	-7824.874
11.782	-5896.874
11.784	-4730.874
11.786	-2917.874
11.788	-1430.874
11.790	-330.874
11.792	451.126
11.794	217.126
11.796	-785.874
11.798	-1414.874
11.800	-1910.874
11.802	-2080.874
11.804	-4035.874
11.806	-5872.874
11.808	-7135.874
11.810	-7948.874
11.812	-9463.874
11.814	-9725.874
11.816	-11356.874
11.818	-11270.874
11.820	-6763.874
11.822	-4731.874
11.824	-4110.874
11.826	-2615.874
11.828	-1563.874
11.830	-1450.874
11.832	-1078.874
11.834	148.126
11.836	626.126
11.838	426.126
11.840	-1253.874
11.842	-2579.874
11.844	-4076.874
11.846	-5866.874
11.848	-7151.874
11.850	-7856.874
11.852	-8588.874
11.854	-9387.874
11.856	-10720.874
11.858	-9823.874
11.860	-6536.874
11.862	-5512.874
11.864	-4354.874
11.866	-2330.874
11.868	-1203.874
11.870	-950.874
11.872	-1209.874
11.874	-1306.874
11.876	-320.874
11.878	-941.874
11.880	-2113.874
11.882	-3204.874
11.884	-5379.874
11.886	-6856.874
11.888	-6929.874
11.890	-7486.874
11.892	-9001.874
11.894	-9908.874
11.896	-10066.874
11.898	-8373.874
11.900	-7963.874
11.902	-7329.874
11.904	-6006.874
11.906	-4049.874
11.908	-1807.874
11.910	-264.874
11.912	643.126
11.914	264.126
11.916	-144.874
11.918	-776.874
11.920	-1632.874
11.922	-2588.874
11.924	-3901.874
11.926	-5910.874
11.928	-7733.874
11.930	-8608.874
11.932	-8928.874
11.934	-10365.874
11.936	-10297.874
11.938	-8115.874
11.940	-6806.874
11.942	-5834.874
11.944	-4161.874
11.946	-1962.874
11.948	-834.874
11.950	-263.874
11.952	491.126
11.954	1032.126
11.956	718.126
11.958	1397.126
11.960	853.126
11.962	-947.874
11.964	-2650.874
11.966	-4640.874
11.968	-6362.874
11.970	-7764.874
11.972	-8779.874
11.974	-10224.874
11.976	-8774.874
11.978	-4943.874
11.980	-4186.874
11.982	-3743.874
11.984	-1845.874
11.986	196.126
11.988	2716.126
11.990	3007.126
11.992	2794.126
11.994	3216.126
11.996	2843.126
11.998	1208.126
12.000	260.126
12.002	-560.874
12.004	-2427.874
12.006	-4020.874
12.008	-4015.874
12.010	-4640.874
12.012	-5748.874
12.014	-7361.874
12.016	-7468.874
12.018	-5208.874
12.020	-4113.874
12.022	-2807.874
12.024	-172.874
12.026	1886.126
12.028	2486.126
12.030	2940.126
12.032	3407.126
12.034	2039.126
12.036	888.126
12.038	488.126
12.040	172.126
12.042	21.126
12.044	-1333.874
12.046	-4590.874
12.048	-6240.874
12.050	-7306.874
12.052	-7501.874
12.054	-9148.874
12.056	-9753.874
12.058	-7252.874
12.060	-6348.874
12.062	-5967.874
12.064	-4926.874
12.066	-3324.874
12.068	-1158.874
12.070	79.126
12.072	491.126
12.074	30.126
12.076	-541.874
12.078	-954.874
12.080	-1821.874
12.082	-3710.874
12.084	-5913.874
12.086	-7535.874
12.088	-9107.874
12.090	-10016.874
12.092	-11520.874
12.094	-12789.874
12.096	-10570.874
12.098	-8805.874
12.100	-8034.874
12.102	-5840.874
12.104	-3982.874
12.106	-2617.874
12.108	-2170.874
12.110	-2050.874
12.112	-2455.874
12.114	-3037.874
12.116	-2493.874
12.118	-1801.874
12.120	-1226.874
12.122	-2555.874
12.124	-4998.874
12.126	-7252.874
12.128	-8040.874
12.130	-8016.874
12.132	-10219.874
12.134	-10915.874
12.136	-9520.874
12.138	-8496.874
12.140	-7604.874
12.142	-6763.874
12.144	-5486.874
12.146	-4196.874
12.148	-2967.874
12.150	-322.874
12.152	723.126
12.154	4.126
12.156	-1136.874
12.158	-2628.874
12.160	-3305.874
12.162	-3790.874
12.164	-4835.874
12.166	-6675.874
12.168	-8048.874
12.170	-9017.874
12.172	-11160.874
12.174	-11561.874
12.176	-9173.874
12.178	-7635.874
12.180	-7354.874
12.182	-6323.874
12.184	-3322.874
12.186	332.126
12.188	2568.126
12.190	4633.126
12.192	7636.126
12.194	9399.126
12.196	10554.126
12.198	12196.126
12.200	13692.126
12.202	14895.126
12.204	16129.126
12.206	16038.126
12.208	17344.126
12.210	19228.126
12.212	20043.126
12.214	22817.126
12.216	27312.126
12.218	32134.126
12.220	35290.126
12.222	38913.126
12.224	42666.126
12.226	44261.126
12.228	42143.126
12.230	38778.126
12.232	35368.126
12.234	31636.126
12.236	27593.126
12.238	23027.126
12.240	17069.126
12.242	11149.126
12.244	6570.126
12.246	2492.126
12.248	-285.874
12.250	-2654.874
12.252	-5038.874
12.254	-5481.874
12.256	-3665.874
12.258	-3158.874
12.260	-4208.874
12.262	-4139.874
12.264	-3408.874
12.266	-1480.874
12.268	566.126
12.270	-90.874
12.272	-396.874
12.274	-848.874
12.276	-1370.874
12.278	-2478.874
12.280	-4366.874
12.282	-5887.874
12.284	-7051.874
12.286	-9245.874
12.288	-11269.874
12.290	-13558.874
12.292	-15006.874
12.294	-11569.874
12.296	-10200.874
12.298	-10005.874
12.300	-10064.874
12.302	-7823.874
12.304	-4671.874
12.306	-2381.874
12.308	-1175.874
12.310	-96.874
12.312	664.126
12.314	994.126
12.316	931.126
12.318	-1155.874
12.320	-3331.874
12.322	-3773.874
12.324	-4710.874
12.326	-7048.874
12.328	-8235.874
12.330	-9926.874
12.332	-10836.874
12.334	-9013.874
12.336	-8843.874
12.338	-8664.874
12.340	-7521.874
12.342	-6252.874
12.344	-5076.874
12.346	-3024.874
12.348	-888.874
12.350	524.126
12.352	1076.126
12.354	709.126
12.356	1444.126
12.358	966.126
12.360	-1013.874
12.362	-2352.874
12.364	-3680.874
12.366	-5717.874
12.368	-7225.874
12.370	-9561.874
12.372	-10415.874
12.374	-8233.874
12.376	-7572.874
12.378	-7075.874
12.380	-6171.874
12.382	-5214.874
12.384	-3753.874
12.386	-906.874
12.388	779.126
12.390	1244.126
12.392	1468.126
12.394	1893.126
12.396	756.126
12.398	-841.874
12.400	-852.874
12.402	-1776.874
12.404	-3290.874
12.406	-4984.874
12.408	-6603.874
12.410	-8652.874
12.412	-9173.874
12.414	-7506.874
12.416	-7316.874
12.418	-6316.874
12.420	-5529.874
12.422	-4478.874
12.424	-2836.874
12.426	-504.874
12.428	946.126
12.430	1399.126
12.432	1628.126
12.434	2326.126
12.436	2038.126
12.438	453.126
12.440	-1725.874
12.442	-3186.874
12.444	-3290.874
12.446	-4125.874
12.448	-5609.874
12.450	-7776.874
12.452	-7816.874
12.454	-6871.874
12.456	-6676.874
12.458	-5388.874
12.460	-4302.874
12.462	-3733.874
12.464	-2091.874
12.466	194.126
12.468	1339.126
12.470	1168.126
12.472	724.126
12.474	1165.126
12.476	1746.126
12.478	1942.126
12.480	1329.126
12.482	652.126
12.484	-1756.874
12.486	-3778.874
12.488	-4334.874
12.490	-5806.874
12.492	-6110.874
12.494	-5075.874
12.496	-3741.874
12.498	-3968.874
12.500	-3801.874
12.502	-1733.874
12.504	-193.874
12.506	1702.126
12.508	3230.126
12.510	4138.126
12.512	4312.126
12.514	3863.126
12.516	4062.126
12.518	3964.126
12.520	3449.126
12.522	939.126
12.524	-243.874
12.526	-1268.874
12.528	-3598.874
12.530	-6355.874
12.532	-3640.874
12.534	-2543.874
12.536	-2682.874
12.538	-2708.874
12.540	-1378.874
12.542	1673.126
12.544	2973.126
12.546	3865.126
12.548	4578.126
12.550	5576.126
12.552	5232.126
12.554	5117.126
12.556	5919.126
12.558	5616.126
12.560	4919.126
12.562	3659.126
12.564	1752.126
12.566	151.126
12.568	-1563.874
12.570	-2552.874
12.572	-963.874
12.574	-784.874
12.576	-1355.874
12.578	-312.874
12.580	1424.126
12.582	3057.126
12.584	3719.126
12.586	5353.126
12.588	7414.126
12.590	9093.126
12.592	9747.126
12.594	9611.126
12.596	8606.126
12.598	7124.126
12.600	6516.126
12.602	5320.126
12.604	3613.126
12.606	2310.126
12.608	63.126
12.610	-576.874
12.612	984.126
12.614	1152.126
12.616	1609.126
12.618	2741.126
12.620	3475.126
12.622	5275.126
12.624	7238.126
12.626	10096.126
12.628	12264.126
12.630	12962.126
12.632	12910.126
12.634	12174.126
12.636	11622.126
12.638	10943.126
12.640	9585.126
12.642	8016.126
12.644	6425.126
12.646	4684.126
12.648	2265.126
12.650	2189.126
12.652	3888.126
12.654	4493.126
12.656	4498.126
12.658	5149.126
12.660	5990.126
12.662	7384.126
12.664	8934.126
12.666	9928.126
12.668	10637.126
12.670	12633.126
12.672	14262.126
12.674	14336.126
12.676	14123.126
12.678	13749.126
12.680	13359.126
12.682	10814.126
12.684	8439.126
12.686	6093.126
12.688	4189.126
12.690	3324.126
12.692	4473.126
12.694	4890.126
12.696	5252.126
12.698	7273.126
12.700	9108.126
12.702	9854.126
12.704	11102.126
12.706	12138.126
12.708	11451.126
12.710	11157.126
12.712	11231.126
12.714	12203.126
12.716	12128.126
12.718	10166.126
12.720	9155.126
12.722	6301.126
12.724	3430.126
12.726	1756.126
12.728	-282.874
12.730	927.126
12.732	578.126
12.734	-584.874
12.736	275.126
12.738	1835.126
12.740	2446.126
12.742	3001.126
12.744	3529.126
12.746	4865.126
12.748	5668.126
12.750	7129.126
12.752	7593.126
12.754	6248.126
12.756	4738.126
12.758	3783.126
12.760	2814.126
12.762	1220.126
12.764	-864.874
12.766	-3439.874
12.768	-5310.874
12.770	-4643.874
12.772	-5377.874
12.774	-6360.874
12.776	-5388.874
12.778	-3996.874
12.780	-3188.874
12.782	-2062.874
12.784	-1095.874
12.786	826.126
12.788	2500.126
12.790	2711.126
12.792	1774.126
12.794	1022.126
12.796	350.126
12.798	-376.874
12.800	-497.874
12.802	-1600.874
12.804	-4190.874
12.806	-7510.874
12.808	-8809.874
12.810	-8213.874
12.812	-8822.874
12.814	-8800.874
12.816	-6838.874
12.818	-5486.874
12.820	-4730.874
12.822	-4129.874
12.824	-2866.874
12.826	-335.874
12.828	653.126
12.830	440.126
12.832	-423.874
12.834	-576.874
12.836	203.126
12.838	-805.874
12.840	-2095.874
12.842	-2848.874
12.844	-4595.874
12.846	-7910.874
12.848	-9784.874
12.850	-9632.874
12.852	-10578.874
12.854	-10543.874
12.856	-8850.874
12.858	-7416.874
12.860	-5696.874
12.862	-4429.874
12.864	-3540.874
12.866	-2847.874
12.868	-873.874
12.870	-1048.874
12.872	-1053.874
12.874	-117.874
12.876	-695.874
12.878	-2016.874
12.880	-2641.874
12.882	-4599.874
12.884	-5720.874
12.886	-6970.874
12.888	-8414.874
12.890	-8340.874
12.892	-8910.874
12.894	-10611.874
12.896	-10544.874
12.898	-7984.874
12.900	-5701.874
12.902	-4421.874
12.904	-2558.874
12.906	-489.874
12.908	331.126
12.910	1648.126
12.912	844.126
12.914	-53.874
12.916	-1518.874
12.918	-2933.874
12.920	-4043.874
12.922	-4800.874
12.924	-5901.874
12.926	-7683.874
12.928	-6876.874
12.930	-8736.874
12.932	-9793.874
12.934	-9935.874
12.936	-8693.874
12.938	-7577.874
12.940	-8433.874
12.942	-6111.874
12.944	-1585.874
12.946	400.126
12.948	-267.874
12.950	-413.874
12.952	-348.874
12.954	183.126
12.956	-567.874
12.958	-1401.874
12.960	-2068.874
12.962	-4435.874
12.964	-7550.874
12.966	-8758.874
12.968	-8025.874
12.970	-8891.874
12.972	-9795.874
12.974	-9451.874
12.976	-8006.874
12.978	-6673.874
12.980	-6095.874
12.982	-5120.874
12.984	-3533.874
12.986	-1604.874
12.988	-65.874
12.990	816.126
12.992	855.126
12.994	-263.874
12.996	-1623.874
12.998	-2259.874
13.000	-3131.874
13.002	-4272.874
13.004	-7114.874
13.006	-8786.874
13.008	-7955.874
13.010	-9660.874
13.012	-10468.874
13.014	-9928.874
13.016	-8683.874
13.018	-6350.874
13.020	-4606.874
13.022	-3435.874
13.024	-2406.874
13.026	-723.874
13.028	-586.874
13.030	0.126
13.032	655.126
13.034	-428.874
13.036	-2003.874
13.038	-3660.874
13.040	-3934.874
13.042	-4054.874
13.044	-5978.874
13.046	-7508.874
13.048	-7431.874
13.050	-7958.874
13.052	-8923.874
13.054	-8883.874
13.056	-7221.874
13.058	-6475.874
13.060	-6497.874
13.062	-4324.874
13.064	-2740.874
13.066	-2230.874
13.068	-1765.874
13.070	-552.874
13.072	-391.874
13.074	-1155.874
13.076	-1287.874
13.078	-1835.874
13.080	-3597.874
13.082	-4130.874
13.084	-6641.874
13.086	-8941.874
13.088	-8543.874
13.090	-9948.874
13.092	-10587.874
13.094	-9421.874
13.096	-8750.874
13.098	-7828.874
13.100	-5556.874
13.102	-3248.874
13.104	-796.874
13.106	984.126
13.108	466.126
13.110	374.126
13.112	495.126
13.114	1273.126
13.116	425.126
13.118	-1072.874
13.120	-2186.874
13.122	-3855.874
13.124	-6556.874
13.126	-7258.874
13.128	-6700.874
13.130	-7607.874
13.132	-8586.874
13.134	-9075.874
13.136	-8338.874
13.138	-7320.874
13.140	-5656.874
13.142	-4264.874
13.144	-2501.874
13.146	-541.874
13.148	253.126
13.150	380.126
13.152	-248.874
13.154	-1031.874
13.156	-2156.874
13.158	-2667.874
13.160	-2856.874
13.162	-5289.874
13.164	-8517.874
13.166	-7797.874
13.168	-8105.874
13.170	-8470.874
13.172	-8743.874
13.174	-8814.874
13.176	-7818.874
13.178	-6991.874
13.180	-5504.874
13.182	-2979.874
13.184	-1531.874
13.186	-932.874
13.188	663.126
13.190	2063.126
13.192	1865.126
13.194	641.126
13.196	64.126
13.198	-107.874
13.200	-1410.874
13.202	-4820.874
13.204	-6433.874
13.206	-5238.874
13.208	-5860.874
13.210	-7403.874
13.212	-8231.874
13.214	-7197.874
13.216	-5233.874
13.218	-3934.874
13.220	-2286.874
13.222	-1050.874
13.224	438.126
13.226	2475.126
13.228	2961.126
13.230	1998.126
13.232	1298.126
13.234	1786.126
13.236	1441.126
13.238	253.126
13.240	-458.874
13.242	-2866.874
13.244	-5468.874
13.246	-5178.874
13.248	-5730.874
13.250	-7095.874
13.252	-6291.874
13.254	-5143.874
13.256	-4833.874
13.258	-3829.874
13.260	-2465.874
13.262	-1168.874
13.264	896.126
13.266	2761.126
13.268	4037.126
13.270	4300.126
13.272	3939.126
13.274	3629.126
13.276	1789.126
13.278	401.126
13.280	-843.874
13.282	-4237.874
13.284	-6270.874
13.286	-6088.874
13.288	-7082.874
13.290	-7287.874
13.292	-7227.874
13.294	-7701.874
13.296	-6940.874
13.298	-6223.874
13.300	-4903.874
13.302	-3485.874
13.304	-1676.874
13.306	-710.874
13.308	273.126
13.310	853.126
13.312	277.126
13.314	-145.874
13.316	-1286.874
13.318	-3155.874
13.320	-4585.874
13.322	-6703.874
13.324	-8147.874
13.326	-7686.874
13.328	-9200.874
13.330	-10901.874
13.332	-10255.874
13.334	-9557.874
13.336	-8523.874
13.338	-7315.874
13.340	-6076.874
13.342	-4748.874
13.344	-2109.874
13.346	351.126
13.348	1044.126
13.350	817.126
13.352	-241.874
13.354	-736.874
13.356	-1479.874
13.358	-2783.874
13.360	-4973.874
13.362	-7637.874
13.364	-6572.874
13.366	-7323.874
13.368	-8758.874
13.370	-9021.874
13.372	-8052.874
13.374	-8368.874
13.376	-8401.874
13.378	-7710.874
13.380	-6112.874
13.382	-3947.874
13.384	-1730.874
13.386	-922.874
13.388	-363.874
13.390	98.126
13.392	88.126
13.394	-447.874
13.396	-1219.874
13.398	-2415.874
13.400	-5078.874
13.402	-7448.874
13.404	-7723.874
13.406	-7121.874
13.408	-7201.874
13.410	-8805.874
13.412	-9393.874
13.414	-8931.874
13.416	-8228.874
13.418	-7251.874
13.420	-5491.874
13.422	-3680.874
13.424	-1528.874
13.426	338.126
13.428	2330.126
13.430	3733.126
13.432	4823.126
13.434	6356.126
13.436	7833.126
13.438	8878.126
13.440	9344.126
13.442	11126.126
13.444	13933.126
13.446	15329.126
13.448	17029.126
13.450	19024.126
13.452	21667.126
13.454	24629.126
13.456	28145.126
13.458	31245.126
13.460	35762.126
13.462	40557.126
13.464	44303.126
13.466	45705.126
13.468	45312.126
13.470	41930.126
13.472	37306.126
13.474	33343.126
13.476	29048.126
13.478	24617.126
13.480	17520.126
13.482	10386.126
13.484	6058.126
13.486	3440.126
13.488	327.126
13.490	-2818.874
13.492	-3090.874
13.494	-2673.874
13.496	-2474.874
13.498	-2406.874
13.500	-2092.874
13.502	-1570.874
13.504	-1205.874
13.506	-888.874
13.508	-311.874
13.510	659.126
13.512	832.126
13.514	-304.874
13.516	-1960.874
13.518	-3825.874
13.520	-6806.874
13.522	-8397.874
13.524	-9187.874
13.526	-10945.874
13.528	-12576.874
13.530	-12819.874
13.532	-12873.874
13.534	-12375.874
13.536	-10507.874
13.538	-9627.874
13.540	-8326.874
13.542	-5975.874
13.544	-2260.874
13.546	-1349.874
13.548	-1363.874
13.550	-1001.874
13.552	-192.874
13.554	66.126
13.556	-845.874
13.558	-2365.874
13.560	-5385.874
13.562	-5405.874
13.564	-6074.874
13.566	-6866.874
13.568	-8384.874
13.570	-9434.874
13.572	-9148.874
13.574	-8021.874
13.576	-7430.874
13.578	-7250.874
13.580	-6225.874
13.582	-5045.874
13.584	-3181.874
13.586	-1264.874
13.588	1132.126
13.590	1558.126
13.592	464.126
13.594	-447.874
13.596	-1659.874
13.598	-3348.874
13.600	-4193.874
13.602	-3345.874
13.604	-5285.874
13.606	-6548.874
13.608	-7188.874
13.610	-7735.874
13.612	-7801.874
13.614	-7979.874
13.616	-6726.874
13.618	-5495.874
13.620	-4142.874
13.622	-2663.874
13.624	-360.874
13.626	1356.126
13.628	1173.126
13.630	450.126
13.632	-135.874
13.634	-25.874
13.636	-895.874
13.638	-2410.874
13.640	-2386.874
13.642	-2289.874
13.644	-3438.874
13.646	-5456.874
13.648	-7431.874
13.650	-8452.874
13.652	-8296.874
13.654	-7710.874
13.656	-6551.874
13.658	-4996.874
13.660	-3134.874
13.662	-918.874
13.664	1428.126
13.666	1947.126
13.668	2114.126
13.670	1724.126
13.672	1405.126
13.674	1837.126
13.676	1073.126
13.678	-1028.874
13.680	-2981.874
13.682	-2731.874
13.684	-4385.874
13.686	-6588.874
13.688	-7301.874
13.690	-7654.874
13.692	-7344.874
13.694	-5949.874
13.696	-4377.874
13.698	-3511.874
13.700	-2861.874
13.702	-2563.874
13.704	-1551.874
13.706	-46.874
13.708	2367.126
13.710	4309.126
13.712	4749.126
13.714	3821.126
13.716	2006.126
13.718	-628.874
13.720	-2285.874
13.722	-1268.874
13.724	-1283.874
13.726	-2868.874
13.728	-4952.874
13.730	-6240.874
13.732	-6854.874
13.734	-6386.874
13.736	-4768.874
13.738	-3189.874
13.740	-483.874
13.742	1566.126
13.744	3289.126
13.746	4157.126
13.748	4151.126
13.750	4077.126
13.752	4313.126
13.754	3731.126
13.756	1453.126
13.758	-1260.874
13.760	-670.874
13.762	-1093.874
13.764	-1847.874
13.766	-2793.874
13.768	-4723.874
13.770	-4989.874
13.772	-4391.874
13.774	-3846.874
13.776	-2900.874
13.778	-935.874
13.780	1163.126
13.782	2844.126
13.784	4053.126
13.786	4449.126
13.788	5383.126
13.790	5842.126
13.792	6788.126
13.794	6139.126
13.796	2853.126
13.798	2218.126
13.800	4355.126
13.802	3129.126
13.804	376.126
13.806	-704.874
13.808	-1571.874
13.810	-1616.874
13.812	-1565.874
13.814	-1661.874
13.816	-1111.874
13.818	1063.126
13.820	3013.126
13.822	4204.126
13.824	5914.126
13.826	7025.126
13.828	8852.126
13.830	9666.126
13.832	8881.126
13.834	8644.126
13.836	5608.126
13.838	4495.126
13.840	5852.126
13.842	5060.126
13.844	3174.126
13.846	1498.126
13.848	608.126
13.850	293.126
13.852	949.126
13.854	2116.126
13.856	3901.126
13.858	5539.126
13.860	7139.126
13.862	9036.126
13.864	10834.126
13.866	12220.126
13.868	12616.126
13.870	12603.126
13.872	13151.126
13.874	13003.126
13.876	10314.126
13.878	8843.126
13.880	9614.126
13.882	8254.126
13.884	6728.126
13.886	5401.126
13.888	4071.126
13.890	3804.126
13.892	3939.126
13.894	5159.126
13.896	6828.126
13.898	7383.126
13.900	8496.126
13.902	10033.126
13.904	12064.126
13.906	12933.126
13.908	13887.126
13.910	14353.126
13.912	13776.126
13.914	13014.126
13.916	11449.126
13.918	10822.126
13.920	11243.126
13.922	8855.126
13.924	6257.126
13.926	5535.126
13.928	5368.126
13.930	5444.126
13.932	4914.126
13.934	5531.126
13.936	5941.126
13.938	7027.126
13.940	9003.126
13.942	10593.126
13.944	11729.126
13.946	12776.126
13.948	13685.126
13.950	13590.126
13.952	13077.126
13.954	11648.126
13.956	8688.126
13.958	8116.126
13.960	8720.126
13.962	6692.126
13.964	4198.126
13.966	3013.126
13.968	2321.126
13.970	2083.126
13.972	1506.126
13.974	720.126
13.976	878.126
13.978	2314.126
13.980	3808.126
13.982	4631.126
13.984	6133.126
13.986	7499.126
13.988	7368.126
13.990	6761.126
13.992	6281.126
13.994	4551.126
13.996	2273.126
13.998	4116.126
14.000	3313.126
14.002	225.126
14.004	-2631.874
14.006	-3673.874
14.008	-3572.874
14.010	-3203.874
14.012	-4135.874
14.014	-4604.874
14.016	-3484.874
14.018	-2908.874
14.020	-1123.874
14.022	892.126
14.024	2093.126
14.026	2864.126
14.028	3673.126
14.030	2859.126
14.032	2955.126
14.034	2119.126
14.036	-11.874
14.038	-766.874
14.040	-1867.874
14.042	-3588.874
14.044	-5111.874
14.046	-5430.874
14.048	-6138.874
14.050	-7623.874
14.052	-8416.874
14.054	-7956.874
14.056	-6898.874
14.058	-6039.874
14.060	-4616.874
14.062	-2005.874
14.064	967.126
14.066	1349.126
14.068	1580.126
14.070	2133.126
14.072	1562.126
14.074	-1476.874
14.076	-3029.874
14.078	-2048.874
14.080	-2459.874
14.082	-3833.874
14.084	-5019.874
14.086	-6710.874
14.088	-8450.874
14.090	-9078.874
14.092	-9149.874
14.094	-8278.874
14.096	-7106.874
14.098	-5333.874
14.100	-3660.874
14.102	-2128.874
14.104	-712.874
14.106	597.126
14.108	1341.126
14.110	1383.126
14.112	1224.126
14.114	-828.874
14.116	-2367.874
14.118	-2398.874
14.120	-3394.874
14.122	-4989.874
14.124	-6430.874
14.126	-7933.874
14.128	-8508.874
14.130	-9237.874
14.132	-10335.874
14.134	-8615.874
14.136	-6865.874
14.138	-5926.874
14.140	-4521.874
14.142	-2526.874
14.144	-2026.874
14.146	-1426.874
14.148	-392.874
14.150	351.126
14.152	81.126
14.154	-1724.874
14.156	-2186.874
14.158	-1294.874
14.160	-3055.874
14.162	-5154.874
14.164	-6775.874
14.166	-8831.874
14.168	-9985.874
14.170	-9750.874
14.172	-9056.874
14.174	-7769.874
14.176	-5949.874
14.178	-4276.874
14.180	-3376.874
14.182	-1322.874
14.184	281.126
14.186	1242.126
14.188	817.126
14.190	-105.874
14.192	-1800.874
14.194	-3726.874
14.196	-2864.874
14.198	-4022.874
14.200	-5126.874
14.202	-5530.874
14.204	-5533.874
14.206	-7045.874
14.208	-8316.874
14.210	-8195.874
14.212	-8857.874
14.214	-8776.874
14.216	-7390.874
14.218	-4780.874
14.220	-2083.874
14.222	-336.874
14.224	526.126
14.226	340.126
14.228	991.126
14.230	1247.126
14.232	-358.874
14.234	-1586.874
14.236	-1455.874
14.238	-2857.874
14.240	-3967.874
14.242	-6711.874
14.244	-8745.874
14.246	-8371.874
14.248	-8683.874
14.250	-9222.874
14.252	-8305.874
14.254	-5525.874
14.256	-4621.874
14.258	-4134.874
14.260	-2602.874
14.262	-932.874
14.264	213.126
14.266	990.126
14.268	1108.126
14.270	1114.126
14.272	140.126
14.274	-1108.874
14.276	563.126
14.278	-119.874
14.280	-2861.874
